# starting wavelength =        3350.7189
# ending wavelength =        8923.0529
# O2 telluric scale =        0
# O2 telluric shift =        0
# H2O telluric scale =        0
# H2O telluric shift =        0
      3351.65      0.17003340     0.018254239
      3355.00      0.19056683     0.014512887
      3358.35      0.21177519     0.013279879
      3361.71      0.23068144     0.010873979
      3365.07      0.25015979     0.010130905
      3368.44      0.27045924    0.0086292632
      3371.81      0.28803717    0.0081830513
      3375.18      0.30403764    0.0072760100
      3378.56      0.31617628    0.0070023600
      3381.94      0.32463862    0.0065927289
      3385.32      0.33806392    0.0061632263
      3388.70      0.34924977    0.0060123306
      3392.09      0.35734332    0.0057501802
      3395.48      0.36704810    0.0056390640
      3398.88      0.37921308    0.0054735940
      3402.28      0.38877875    0.0053849726
      3405.68      0.39559051    0.0052764876
      3409.09      0.40266910    0.0052015656
      3412.49      0.40846905    0.0050691095
      3415.91      0.41976389    0.0050575389
      3419.32      0.42721789    0.0050463680
      3422.74      0.43323814    0.0050356014
      3426.17      0.44168159    0.0050252354
      3429.59      0.45100218    0.0050712327
      3433.02      0.45752032    0.0050615802
      3436.45      0.46408044    0.0050523702
      3439.89      0.46877000    0.0049795176
      3443.33      0.47822181    0.0050243505
      3446.78      0.48679117    0.0050139887
      3450.22      0.49398120    0.0050040873
      3453.67      0.49981650    0.0049946515
      3457.13      0.50326434    0.0049856893
      3460.58      0.50340932    0.0050290077
      3464.04      0.50531712    0.0050182432
      3467.51      0.51073027    0.0049473382
      3470.98      0.51758575    0.0049377366
      3474.45      0.52291529    0.0049839555
      3477.92      0.52723531    0.0049724908
      3481.40      0.53228125    0.0049615623
      3484.88      0.53622186    0.0049511778
      3488.37      0.54325760    0.0049994818
      3491.86      0.54556082    0.0049900981
      3495.35      0.54788563    0.0049163361
      3498.84      0.55092643    0.0049053247
      3502.34      0.55306332    0.0049524918
      3505.84      0.55656066    0.0049424842
      3509.35      0.55997581    0.0049330940
      3512.86      0.56242019    0.0049243255
      3516.37      0.56482070    0.0049694830
      3519.89      0.56511175    0.0048959886
      3523.41      0.56565740    0.0048860334
      3526.93      0.56715457    0.0048767232
      3530.46      0.57200771    0.0049239588
      3533.99      0.57780258    0.0049125662
      3537.53      0.58480387    0.0049018873
      3541.06      0.59036918    0.0048919231
      3544.60      0.59432919    0.0048791723
      3548.15      0.59979990    0.0048672223
      3551.70      0.60400791    0.0048560258
      3555.25      0.60660622    0.0048455732
      3558.80      0.60822116    0.0048960260
      3562.36      0.61423873    0.0048869789
      3565.92      0.62099299    0.0048108082
      3569.49      0.62347695    0.0048596707
      3573.06      0.62863137    0.0048493795
      3576.64      0.63388344    0.0048399188
      3580.21      0.64047575    0.0048312959
      3583.79      0.64944229    0.0048785784
      3587.38      0.65728756    0.0048033552
      3590.96      0.66459207    0.0047935322
      3594.55      0.67246004    0.0048450306
      3598.15      0.68053492    0.0048328251
      3601.75      0.68753043    0.0048215765
      3605.35      0.69367907    0.0048112825
      3608.96      0.70013041    0.0047999168
      3612.56      0.70509222    0.0047874061
      3616.18      0.70980120    0.0047758787
      3619.79      0.71464216    0.0048282275
      3623.41      0.72047419    0.0048185333
      3627.04      0.72464187    0.0048099006
      3630.66      0.73048926    0.0047304939
      3634.29      0.73719472    0.0047820913
      3637.93      0.74159753    0.0047722467
      3641.57      0.74690970    0.0047634973
      3645.21      0.75390555    0.0048141102
      3648.86      0.75738386    0.0048028102
      3652.50      0.76247874    0.0047263892
      3656.16      0.76824633    0.0047805806
      3659.81      0.77312350    0.0047680070
      3663.47      0.77779720    0.0047566949
      3667.14      0.78290400    0.0048132527
      3670.80      0.78793841    0.0047346253
      3674.48      0.79132312    0.0047220971
      3678.15      0.79602926    0.0047108628
      3681.83      0.80177098    0.0047669001
      3685.51      0.80715014    0.0047581370
      3689.20      0.81314042    0.0047507655
      3692.88      0.81862292    0.0047308603
      3696.58      0.82154118    0.0047209540
      3700.27      0.82488005    0.0047124626
      3703.98      0.82688403    0.0047654629
      3707.68      0.82976670    0.0047541622
      3711.39      0.83359964    0.0046754540
      3715.10      0.83626815    0.0047313451
      3718.81      0.83945175    0.0047188784
      3722.53      0.84214086    0.0047080302
      3726.26      0.84541984    0.0047692300
      3729.98      0.84630317    0.0046845777
      3733.71      0.84720214    0.0046726555
      3737.45      0.84594900    0.0047322675
      3741.18      0.84794950    0.0047235356
      3744.93      0.84848713    0.0047165920
      3748.67      0.84994454    0.0046962767
      3752.42      0.85434685    0.0046865304
      3756.17      0.85555502    0.0047467573
      3759.93      0.85767169    0.0047337402
      3763.69      0.86254105    0.0046504079
      3767.45      0.86696665    0.0047129107
      3771.22      0.87000933    0.0046988452
      3774.99      0.87239929    0.0046868633
      3778.77      0.87720782    0.0047521245
      3782.54      0.88259482    0.0046645442
      3786.33      0.88618415    0.0046516366
      3790.11      0.89198831    0.0047154477
      3793.90      0.89875494    0.0047066487
      3797.70      0.90194584    0.0046169477
      3801.50      0.90704359    0.0046794127
      3805.30      0.91199170    0.0046697924
      3809.10      0.91586446    0.0047336373
      3812.91      0.92130843    0.0047204051
      3816.73      0.92853244    0.0046335357
      3820.54      0.93136059    0.0046988126
      3824.36      0.93494663    0.0046848027
      3828.19      0.94114235    0.0046734370
      3832.02      0.94644458    0.0046642555
      3835.85      0.95360485    0.0046495442
      3839.68      0.96163122    0.0047178761
      3843.52      0.96862121    0.0047083826
      3847.37      0.97691015    0.0047018082
      3851.22      0.98515891    0.0046817352
      3855.07      0.99026904    0.0046717152
      3858.92      0.99457618    0.0047412640
      3862.78       1.0006721    0.0047271742
      3866.64       1.0068973    0.0046354513
      3870.51       1.0130058    0.0047054963
      3874.38       1.0211197    0.0046909751
      3878.26       1.0269713    0.0047676339
      3882.13       1.0375022    0.0046697995
      3886.02       1.0471674    0.0046549660
      3889.90       1.0573748    0.0047307030
      3893.79       1.0655801    0.0047227116
      3897.69       1.0702757    0.0047058973
      3901.59       1.0744348    0.0046940538
      3905.49       1.0789994    0.0046859928
      3909.39       1.0846768    0.0047567539
      3913.30       1.0865474    0.0046576653
      3917.22       1.0890757    0.0046496701
      3921.13       1.0913312    0.0047197823
      3925.06       1.0912963    0.0046215323
      3928.98       1.0917237    0.0046137279
      3932.91       1.0917936    0.0045970700
      3936.84       1.0920899    0.0045856612
      3940.78       1.0934092    0.0045782115
      3944.72       1.0969534    0.0045610716
      3948.67       1.0989544    0.0045500882
      3952.61       1.1023068    0.0045431227
      3956.57       1.1099147    0.0045252662
      3960.52       1.1148787    0.0045148447
      3964.48       1.1190139    0.0045085175
      3968.45       1.1207031    0.0044896865
      3972.42       1.1216541    0.0044799844
      3976.39       1.1218100    0.0043849426
      3980.37       1.1221953    0.0044544185
      3984.35       1.1221520    0.0044455742
      3988.33       1.1233380    0.0043498298
      3992.32       1.1224921    0.0044195258
      3996.31       1.1210861    0.0044116915
      4000.31       1.1215588    0.0043150304
      4004.31       1.1221095    0.0043851148
      4008.31       1.1223416    0.0042941978
      4012.32       1.1208335    0.0043610008
      4016.33       1.1206752    0.0043512600
      4020.35       1.1209117    0.0042590485
      4024.37       1.1191205    0.0043264383
      4028.40       1.1195226    0.0043180804
      4032.42       1.1204946    0.0042243870
      4036.46       1.1182986    0.0042925163
      4040.50       1.1133703    0.0042039344
      4044.54       1.1110895    0.0041903213
      4048.58       1.1079700    0.0042593805
      4052.63       1.1056746    0.0041689548
      4056.68       1.1045973    0.0041569964
      4060.74       1.1036768    0.0041492715
      4064.80       1.1040901    0.0041347284
      4068.86       1.1035087    0.0042019118
      4072.93       1.1038800    0.0041140159
      4077.01       1.1051792    0.0041013605
      4081.08       1.1041207    0.0040947842
      4085.17       1.1040870    0.0040797065
      4089.25       1.1039588    0.0040690752
      4093.34       1.1045207    0.0040593811
      4097.43       1.1061618    0.0040464314
      4101.53       1.1051265    0.0040403159
      4105.63       1.1055618    0.0040250756
      4109.74       1.1059282    0.0040143977
      4113.85       1.1021545    0.0040049053
      4117.96       1.1025192    0.0039920579
      4122.08       1.1047951    0.0039858168
      4126.20       1.1043910    0.0039708338
      4130.33       1.1051917    0.0038925398
      4134.46       1.1073996    0.0039506218
      4138.59       1.1091476    0.0039382814
      4142.73       1.1112746    0.0039313681
      4146.88       1.1135981    0.0039170323
      4151.02       1.1150126    0.0038403791
      4155.18       1.1169068    0.0038966322
      4159.33       1.1187383    0.0038185019
      4163.49       1.1195551    0.0038770669
      4167.65       1.1207488    0.0038638083
      4171.82       1.1244554    0.0037892036
      4175.99       1.1283863    0.0038431782
      4180.17       1.1302456    0.0037672839
      4184.35       1.1298260    0.0038232203
      4188.54       1.1288694    0.0037460335
      4192.72       1.1277550    0.0037392157
      4196.92       1.1280953    0.0037905114
      4201.11       1.1276619    0.0037171978
      4205.31       1.1249894    0.0037701660
      4209.52       1.1232361    0.0036957705
      4213.73       1.1238558    0.0037503331
      4217.94       1.1247307    0.0036748770
      4222.16       1.1257181    0.0036686044
      4226.38       1.1270134    0.0036544577
      4230.61       1.1288791    0.0036470164
      4234.84       1.1303468    0.0036344574
      4239.08       1.1334437    0.0036259009
      4243.32       1.1365656    0.0036781469
      4247.56       1.1412940    0.0036052085
      4251.81       1.1463538    0.0036002156
      4256.06       1.1508556    0.0035849042
      4260.32       1.1537201    0.0035789413
      4264.58       1.1537211    0.0035649298
      4268.84       1.1572414    0.0035580554
      4273.11       1.1614177    0.0035452543
      4277.38       1.1640245    0.0035375282
      4281.66       1.1658938    0.0034656303
      4285.94       1.1659958    0.0035173131
      4290.23       1.1673743    0.0034467205
      4294.52       1.1697211    0.0034973806
      4298.81       1.1704359    0.0034279989
      4303.11       1.1716192    0.0034776959
      4307.42       1.1710731    0.0034094239
      4311.72       1.1703182    0.0034582305
      4316.04       1.1670516    0.0033909820
      4320.35       1.1657149    0.0034389681
      4324.67       1.1645610    0.0033726731
      4329.00       1.1631820    0.0033615215
      4333.33       1.1606503    0.0034132179
      4337.66       1.1588038    0.0033428769
      4342.00       1.1564771    0.0033938740
      4346.34       1.1542811    0.0033243682
      4350.69       1.1554503    0.0033747251
      4355.04       1.1557709    0.0033059815
      4359.39       1.1553727    0.0033557536
      4363.75       1.1569601    0.0032876964
      4368.12       1.1594486    0.0033369530
      4372.48       1.1637420    0.0032695156
      4376.86       1.1670479    0.0033183111
      4381.23       1.1728053    0.0032514236
      4385.61       1.1788207    0.0032462591
      4390.00       1.1815888    0.0032334118
      4394.39       1.1849860    0.0032283281
      4398.79       1.1866033    0.0032154805
      4403.18       1.1890986    0.0032104352
      4407.59       1.1920000    0.0031976375
      4412.00       1.1926952    0.0031925466
      4416.41       1.1941907    0.0031798797
      4420.82       1.1958416    0.0031210160
      4425.25       1.1968974    0.0031622009
      4429.67       1.1998260    0.0031038299
      4434.10       1.2040012    0.0031446125
      4438.54       1.2097712    0.0030867893
      4442.97       1.2159922    0.0031271311
      4447.42       1.2248018    0.0030699041
      4451.86       1.2350450    0.0031097577
      4456.32       1.2459067    0.0030531787
      4460.77       1.2560508    0.0030924975
      4465.24       1.2671071    0.0030366316
      4469.70       1.2773771    0.0030753790
      4474.17       1.2859536    0.0030685790
      4478.65       1.2922358    0.0030090694
      4483.12       1.2987640    0.0030511692
      4487.61       1.3037869    0.0029925523
      4492.09       1.3085631    0.0030338938
      4496.59       1.3132543    0.0029762087
      4501.08       1.3165702    0.0030167625
      4505.58       1.3190591    0.0029600610
      4510.09       1.3205290    0.0029997909
      4514.60       1.3220312    0.0029441275
      4519.12       1.3228357    0.0029348448
      4523.63       1.3233273    0.0029284269
      4528.16       1.3249432    0.0029185960
      4532.69       1.3260255    0.0029129854
      4537.22       1.3264607    0.0029025727
      4541.76       1.3264707    0.0028978222
      4546.30       1.3256218    0.0028868003
      4550.85       1.3242397    0.0028829713
      4555.40       1.3215074    0.0028713076
      4559.95       1.3195234    0.0028172831
      4564.51       1.3158401    0.0028561190
      4569.08       1.3132618    0.0028469749
      4573.65       1.3114751    0.0028412685
      4578.22       1.3092058    0.0028313874
      4582.80       1.3061948    0.0028267818
      4587.38       1.3041214    0.0028161361
      4591.97       1.3012392    0.0027637147
      4596.56       1.2986061    0.0028012553
      4601.16       1.2957984    0.0027482855
      4605.76       1.2924258    0.0027867906
      4610.37       1.2876908    0.0027332350
      4614.98       1.2841804    0.0027267269
      4619.59       1.2800708    0.0027625641
      4624.21       1.2763116    0.0027112136
      4628.84       1.2722985    0.0027481265
      4633.47       1.2664412    0.0026961220
      4638.10       1.2603818    0.0026904318
      4642.74       1.2538716    0.0026814955
      4647.38       1.2470206    0.0026748707
      4652.03       1.2405015    0.0027105456
      4656.68       1.2341048    0.0026597855
      4661.34       1.2285535    0.0026546539
      4666.00       1.2232401    0.0026452429
      4670.67       1.2173839    0.0026390839
      4675.33       1.2142967    0.0026312638
      4680.01       1.2108771    0.0026240938
      4684.69       1.2070819    0.0026192514
      4689.38       1.2046733    0.0026097044
      4694.07       1.2023081    0.0026037801
      4698.76       1.2009658    0.0025959624
      4703.46       1.2020566    0.0025889718
      4708.16       1.2045898    0.0025841889
      4712.87       1.2067684    0.0025748492
      4717.58       1.2099711    0.0025689403
      4722.30       1.2139287    0.0025225846
      4727.03       1.2173747    0.0025544241
      4731.75       1.2199857    0.0025101513
      4736.48       1.2239106    0.0025406957
      4741.22       1.2283178    0.0025345959
      4745.96       1.2303249    0.0024894483
      4750.71       1.2338264    0.0025205262
      4755.46       1.2384337    0.0025152557
      4760.22       1.2411716    0.0024693159
      4764.97       1.2441764    0.0025008662
      4769.74       1.2446412    0.0024572324
      4774.51       1.2439136    0.0024496812
      4779.29       1.2460553    0.0024816146
      4784.07       1.2481569    0.0024374154
      4788.85       1.2500364    0.0024679101
      4793.64       1.2532710    0.0024260893
      4798.43       1.2578843    0.0024180507
      4803.23       1.2623303    0.0024487978
      4808.03       1.2682669    0.0024066184
      4812.84       1.2751094    0.0023990788
      4817.66       1.2802260    0.0024299986
      4822.48       1.2865887    0.0023875688
      4827.30       1.2928989    0.0023804530
      4832.12       1.2983793    0.0023771629
      4836.96       1.3037701    0.0023689085
      4841.79       1.3102004    0.0023621393
      4846.63       1.3161464    0.0023585149
      4851.48       1.3213376    0.0023505947
      4856.33       1.3250821    0.0023441032
      4861.19       1.3275917    0.0023402605
      4866.05       1.3303500    0.0023326039
      4870.92       1.3356220    0.0022914656
      4875.79       1.3387423    0.0023223788
      4880.66       1.3408465    0.0023149200
      4885.55       1.3429350    0.0022741777
      4890.43       1.3454333    0.0023048543
      4895.32       1.3471062    0.0022975349
      4900.22       1.3496238    0.0022571272
      4905.12       1.3535145    0.0022523161
      4910.02       1.3555872    0.0022804439
      4914.94       1.3569710    0.0022403218
      4919.85       1.3600330    0.0022355113
      4924.77       1.3636201    0.0022636616
      4929.70       1.3669541    0.0022237645
      4934.62       1.3702632    0.0022189120
      4939.56       1.3741566    0.0022471997
      4944.50       1.3778978    0.0022074797
      4949.44       1.3817486    0.0022025267
      4954.39       1.3848520    0.0022310638
      4959.35       1.3884101    0.0021914827
      4964.31       1.3925478    0.0021864011
      4969.27       1.3954136    0.0021823253
      4974.24       1.3993868    0.0021758071
      4979.22       1.4036800    0.0021705596
      4984.20       1.4082894    0.0021662762
      4989.18       1.4142138    0.0021604839
      4994.17       1.4214089    0.0021550373
      4999.16       1.4292320    0.0021505183
      5004.16       1.4360175    0.0021469173
      5009.17       1.4437082    0.0021398772
      5014.18       1.4539199    0.0021350892
      5019.19       1.4629379    0.0021311839
      5024.21       1.4715841    0.0020948580
      5029.23       1.4803223    0.0021200553
      5034.26       1.4885934    0.0021158178
      5039.30       1.4965563    0.0020808152
      5044.34       1.5047976    0.0021054618
      5049.39       1.5110240    0.0021008757
      5054.43       1.5196637    0.0020672749
      5059.49       1.5280083    0.0020616514
      5064.55       1.5366517    0.0020864373
      5069.61       1.5452158    0.0020822562
      5074.68       1.5540585    0.0020483637
      5079.76       1.5625383    0.0020431113
      5084.84       1.5715697    0.0020679605
      5089.92       1.5816624    0.0020356919
      5095.01       1.5909137    0.0020300860
      5100.11       1.6010657    0.0020251282
      5105.21       1.6117553    0.0020499624
      5110.31       1.6231452    0.0020177392
      5115.42       1.6342038    0.0020123897
      5120.54       1.6449510    0.0020076603
      5125.66       1.6535791    0.0020035355
      5130.79       1.6621669    0.0020004087
      5135.92       1.6708209    0.0019952446
      5141.05       1.6807918    0.0019906786
      5146.20       1.6894903    0.0019584221
