# starting wavelength =        3273.8432
# ending wavelength =        10095.927
# O2 telluric scale =        0
# O2 telluric shift =        0
# H2O telluric scale =        0
# H2O telluric shift =        0
      3275.47      0.82585767     0.023719053
      3278.75      0.85085516     0.021536740
      3282.03      0.86735864     0.018305531
      3285.31      0.87609154     0.015060698
      3288.60      0.88794851     0.014086352
      3291.88      0.90070152     0.012052563
      3295.18      0.91201348     0.011463985
      3298.47      0.92521004     0.010226663
      3301.77      0.93883617    0.0098605765
      3305.07      0.95358833    0.0091211683
      3308.38      0.97743729    0.0088790386
      3311.69       1.0049396    0.0084337338
      3315.00       1.0174635    0.0081263155
      3318.31       1.0376510    0.0079721861
      3321.63       1.0594984    0.0077359426
      3324.95       1.0758974    0.0076118972
      3328.28       1.0918413    0.0074548105
      3331.61       1.1114212    0.0073492413
      3334.94       1.1280774    0.0072426328
      3338.27       1.1481897    0.0072294606
      3341.61       1.1653256    0.0072167090
      3344.95       1.1763489    0.0072043859
      3348.30       1.1799578    0.0071015400
      3351.65       1.1786147    0.0070873628
      3355.00       1.1959265    0.0071529247
      3358.35       1.2132221    0.0071394107
      3361.71       1.2317660    0.0071263473
      3365.07       1.2442603    0.0071137473
      3368.44       1.2517200    0.0071016141
      3371.81       1.2677755    0.0071648922
      3375.18       1.2824764    0.0071503950
      3378.56       1.2874067    0.0070503182
      3381.94       1.2917158    0.0070370438
      3385.32       1.2967555    0.0070242671
      3388.70       1.2906447    0.0070910171
      3392.09       1.2894770    0.0070757901
      3395.48       1.2930601    0.0070611113
      3398.88       1.2986178    0.0070469787
      3402.28       1.3055308    0.0070334085
      3405.68       1.3118437    0.0070182149
      3409.09       1.3207556    0.0070022875
      3412.49       1.3319894    0.0069869595
      3415.91       1.3407464    0.0069722152
      3419.32       1.3490991    0.0069580678
      3422.74       1.3641283    0.0070265598
      3426.17       1.3812029    0.0070134550
      3429.59       1.3974745    0.0070010081
      3433.02       1.4094216    0.0068983145
      3436.45       1.4163117    0.0068836613
      3439.89       1.4340506    0.0069508100
      3443.33       1.4425567    0.0069372415
      3446.78       1.4476104    0.0069243653
      3450.22       1.4570657    0.0069121868
      3453.67       1.4671468    0.0069007225
      3457.13       1.4694510    0.0068757909
      3460.58       1.4717420    0.0068618551
      3464.04       1.4749816    0.0068486431
      3467.51       1.4806598    0.0068361691
      3470.98       1.4828155    0.0069034974
      3474.45       1.4828377    0.0068881952
      3477.92       1.4825167    0.0068737151
      3481.40       1.4807937    0.0067736209
      3484.88       1.4794777    0.0067609535
      3488.37       1.4766799    0.0068286708
      3491.86       1.4727331    0.0068131416
      3495.35       1.4686176    0.0067984708
      3498.84       1.4669473    0.0067846647
      3502.34       1.4640112    0.0068562253
      3505.84       1.4555906    0.0067539234
      3509.35       1.4544322    0.0067382917
      3512.86       1.4546320    0.0067235706
      3516.37       1.4490046    0.0067934782
      3519.89       1.4478379    0.0067803912
      3523.41       1.4502282    0.0067682846
      3526.93       1.4594250    0.0066636319
      3530.46       1.4620358    0.0067319935
      3533.99       1.4612945    0.0067180551
      3537.53       1.4635263    0.0067051282
      3541.06       1.4643849    0.0066932551
      3544.60       1.4617922    0.0067607885
      3548.15       1.4612178    0.0066567623
      3551.70       1.4630118    0.0066431109
      3555.25       1.4636614    0.0066305240
      3558.80       1.4650799    0.0067003603
      3562.36       1.4694708    0.0066845530
      3565.92       1.4732190    0.0066699336
      3569.49       1.4771953    0.0065687351
      3573.06       1.4815972    0.0066404587
      3576.64       1.4872250    0.0066239646
      3580.21       1.4924338    0.0066087048
      3583.79       1.4953946    0.0065946785
      3587.38       1.5002933    0.0066688794
      3590.96       1.5101904    0.0065637949
      3594.55       1.5144377    0.0065479901
      3598.15       1.5194676    0.0065334565
      3601.75       1.5255528    0.0066063692
      3605.35       1.5341736    0.0065942581
      3608.96       1.5412855    0.0065835265
      3612.56       1.5444906    0.0065582956
      3616.18       1.5520264    0.0065444098
      3619.79       1.5606932    0.0065319727
      3623.41       1.5707276    0.0065209463
      3627.04       1.5795439    0.0065882811
      3630.66       1.5873420    0.0064829280
      3634.29       1.5943778    0.0064702439
      3637.93       1.5941248    0.0065427786
      3641.57       1.5964731    0.0065265049
      3645.21       1.5998791    0.0065118658
      3648.86       1.6003789    0.0064090007
      3652.50       1.6044221    0.0064812958
      3656.16       1.6104466    0.0064649159
      3659.81       1.6154801    0.0064502186
      3663.47       1.6202397    0.0065276490
      3667.14       1.6258353    0.0064198271
      3670.80       1.6318422    0.0064034859
      3674.48       1.6361546    0.0064786595
      3678.15       1.6399645    0.0064655438
      3681.83       1.6446000    0.0064542828
      3685.51       1.6507493    0.0063422143
      3689.20       1.6564816    0.0064167239
      3692.88       1.6620971    0.0064038918
      3696.58       1.6645631    0.0063929666
      3700.27       1.6683592    0.0064635770
      3703.98       1.6716610    0.0063551375
      3707.68       1.6731529    0.0063427373
      3711.39       1.6756268    0.0064172406
      3715.10       1.6780571    0.0064009403
      3718.81       1.6802728    0.0062939708
      3722.53       1.6849208    0.0063721410
      3726.26       1.6865215    0.0063542872
      3729.98       1.6858885    0.0063386751
      3733.71       1.6835616    0.0064201300
      3737.45       1.6793494    0.0063087144
      3741.18       1.6780577    0.0062916778
      3744.93       1.6752876    0.0063710579
      3748.67       1.6748463    0.0063583872
      3752.42       1.6732054    0.0062456217
      3756.17       1.6733735    0.0063230521
      3759.93       1.6744342    0.0063090540
      3763.69       1.6770000    0.0062975533
      3767.45       1.6803592    0.0063738321
      3771.22       1.6863523    0.0062606813
      3774.99       1.6925176    0.0062479910
      3778.77       1.7006186    0.0063268659
      3782.54       1.7075824    0.0063098995
      3786.33       1.7123437    0.0061992994
      3790.11       1.7206995    0.0062804963
      3793.90       1.7311271    0.0062623392
      3797.70       1.7449699    0.0062470934
      3801.50       1.7603762    0.0062345647
      3805.30       1.7758203    0.0062153125
      3809.10       1.7906622    0.0061990471
      3812.91       1.8069206    0.0062851178
      3816.73       1.8201097    0.0061686663
      3820.54       1.8333688    0.0062504122
      3824.36       1.8468519    0.0062359143
      3828.19       1.8603836    0.0062246641
      3832.02       1.8720627    0.0062025276
      3835.85       1.8819585    0.0061872282
      3839.68       1.8915071    0.0061752270
      3843.52       1.9009610    0.0062566686
      3847.37       1.9067214    0.0061389345
      3851.22       1.9165185    0.0061263094
      3855.07       1.9278846    0.0062085941
      3858.92       1.9380471    0.0061913865
      3862.78       1.9475361    0.0061822525
      3866.64       1.9550099    0.0061606461
      3870.51       1.9597984    0.0061429378
      3874.38       1.9643783    0.0062350892
      3878.26       1.9748553    0.0061127577
      3882.13       1.9862229    0.0060946823
      3886.02       1.9959361    0.0061856840
      3889.90       2.0046768    0.0061753620
      3893.79       2.0125827    0.0061512796
      3897.69       2.0192284    0.0061365914
      3901.59       2.0264029    0.0061261648
      3905.49       2.0370941    0.0062094659
      3909.39       2.0462321    0.0060877717
      3913.30       2.0507062    0.0061798838
      3917.22       2.0561346    0.0061599385
      3921.13       2.0632974    0.0060392289
      3925.06       2.0686788    0.0061302085
      3928.98       2.0723103    0.0061105340
      3932.91       2.0781818    0.0062099680
      3936.84       2.0792722    0.0060805132
      3940.78       2.0815864    0.0060612653
      3944.72       2.0822843    0.0061602725
      3948.67       2.0799354    0.0060308202
      3952.61       2.0784754    0.0061248494
      3956.57       2.0806771    0.0061109654
      3960.52       2.0847550    0.0061026034
      3964.48       2.0863280    0.0060750544
      3968.45       2.0916776    0.0060621031
      3972.42       2.0967462    0.0059317359
      3976.39       2.1020787    0.0060256053
      3980.37       2.1093664    0.0060137783
      3984.35       2.1163673    0.0058825105
      3988.33       2.1236962    0.0059766058
      3992.32       2.1303782    0.0059661198
      3996.31       2.1408480    0.0059429493
      4000.31       2.1491516    0.0059281546
      4004.31       2.1565151    0.0058035194
      4008.31       2.1600122    0.0058935478
      4012.32       2.1629724    0.0058804025
      4016.33       2.1665798    0.0057540664
      4020.35       2.1697472    0.0058447971
      4024.37       2.1728731    0.0058334947
      4028.40       2.1744055    0.0057051872
      4032.42       2.1787482    0.0057968327
      4036.46       2.1844953    0.0056754776
      4040.50       2.1856911    0.0056570288
      4044.54       2.1887505    0.0057498578
      4048.58       2.1883988    0.0056260828
      4052.63       2.1871634    0.0057147513
      4056.68       2.1838303    0.0055973404
      4060.74       2.1817765    0.0055775888
      4064.80       2.1788221    0.0056677175
      4068.86       2.1766068    0.0055474539
      4072.93       2.1753724    0.0055302146
      4077.01       2.1742094    0.0055192646
      4081.08       2.1703186    0.0054987277
      4085.17       2.1646384    0.0055866997
      4089.25       2.1611963    0.0054690329
      4093.34       2.1582469    0.0054513409
      4097.43       2.1548985    0.0054410464
      4101.53       2.1515170    0.0054202294
      4105.63       2.1484711    0.0054055346
      4109.74       2.1503894    0.0053906734
      4113.85       2.1487977    0.0053730597
      4117.96       2.1443052    0.0053625824
      4122.08       2.1431434    0.0053420456
      4126.20       2.1442598    0.0052359449
      4130.33       2.1462280    0.0053123961
      4134.46       2.1508940    0.0052953771
      4138.59       2.1568261    0.0052839813
      4142.73       2.1595585    0.0052642735
      4146.88       2.1668746    0.0051604026
      4151.02       2.1756777    0.0052342970
      4155.18       2.1839430    0.0051284728
      4159.33       2.1906017    0.0052054050
      4163.49       2.1954097    0.0051870871
      4167.65       2.2003637    0.0050859568
      4171.82       2.2054804    0.0051567275
      4175.99       2.2104623    0.0050538852
      4180.17       2.2155358    0.0051272321
      4184.35       2.2204137    0.0050226863
      4188.54       2.2251092    0.0050129166
      4192.72       2.2252648    0.0049922787
      4196.92       2.2263095    0.0049806438
      4201.11       2.2269608    0.0050499060
      4205.31       2.2277099    0.0049491371
      4209.52       2.2294156    0.0050204924
      4213.73       2.2268656    0.0049183159
      4217.94       2.2240824    0.0049091936
      4222.16       2.2198572    0.0048881143
      4226.38       2.2183406    0.0048774015
      4230.61       2.2134693    0.0048584429
      4234.84       2.2084575    0.0048462151
      4239.08       2.2024391    0.0049143116
      4243.32       2.1979648    0.0048155697
      4247.56       2.1935962    0.0048080755
      4251.81       2.1903969    0.0047854142
      4256.06       2.1873922    0.0047765975
      4260.32       2.1846650    0.0047556652
      4264.58       2.1815691    0.0047456507
      4268.84       2.1789634    0.0047262928
      4273.11       2.1761719    0.0047150875
      4277.38       2.1723846    0.0046175435
      4281.66       2.1684116    0.0046849431
      4285.94       2.1638900    0.0045891714
      4290.23       2.1604615    0.0046551316
      4294.52       2.1575927    0.0045610362
      4298.81       2.1525422    0.0046256735
      4303.11       2.1483631    0.0045331236
      4307.42       2.1452498    0.0045964565
      4311.72       2.1414997    0.0045053233
      4316.04       2.1393463    0.0045674720
      4320.35       2.1382828    0.0044776610
      4324.67       2.1371823    0.0044617886
      4329.00       2.1357479    0.0045287679
      4333.33       2.1352554    0.0044336448
      4337.66       2.1344431    0.0044994629
      4342.00       2.1318973    0.0044056554
      4346.34       2.1313065    0.0044706688
      4350.69       2.1286448    0.0043777924
      4355.04       2.1276556    0.0044419484
      4359.39       2.1281111    0.0043500439
      4363.75       2.1283875    0.0044134206
      4368.12       2.1288379    0.0043223987
      4372.48       2.1286782    0.0043850760
      4376.86       2.1297736    0.0042948377
      4381.23       2.1307462    0.0042855705
      4385.61       2.1346306    0.0042673736
      4390.00       2.1395859    0.0042581899
      4394.39       2.1392320    0.0042399708
      4398.79       2.1403380    0.0042308091
      4403.18       2.1424619    0.0042126690
      4407.59       2.1431789    0.0042034500
      4412.00       2.1433995    0.0041854323
      4416.41       2.1410239    0.0041059878
      4420.82       2.1393311    0.0041582971
      4425.25       2.1409374    0.0040795264
      4429.67       2.1420557    0.0041312461
      4434.10       2.1449771    0.0040532376
      4438.54       2.1495132    0.0041043100
      4442.97       2.1583537    0.0040271187
      4447.42       2.1647767    0.0040774790
      4451.86       2.1710705    0.0040011845
      4456.32       2.1779155    0.0040507863
      4460.77       2.1865636    0.0039754576
      4465.24       2.1948113    0.0040242397
      4469.70       2.2000291    0.0039499421
      4474.17       2.2005163    0.0039326652
      4478.65       2.1987949    0.0039857249
      4483.12       2.1967136    0.0039069147
      4487.61       2.1951983    0.0039589161
      4492.09       2.1911693    0.0038813754
      4496.59       2.1858879    0.0039322662
      4501.08       2.1821794    0.0038560633
      4505.58       2.1763376    0.0039058096
      4510.09       2.1730227    0.0038309991
      4514.60       2.1674479    0.0038795655
      4519.12       2.1613937    0.0038062226
      4523.63       2.1558810    0.0037906787
      4528.16       2.1510978    0.0037817489
      4532.69       2.1440528    0.0037654384
      4537.22       2.1392566    0.0037576147
      4541.76       2.1337631    0.0037405126
      4546.30       2.1282812    0.0037338622
      4550.85       2.1217396    0.0037159176
      4555.40       2.1160333    0.0036439052
      4559.95       2.1080585    0.0036916963
      4564.51       2.1025500    0.0036770149
      4569.08       2.0986238    0.0036678848
      4573.65       2.0952870    0.0036522337
      4578.22       2.0922273    0.0036445158
      4582.80       2.0910884    0.0036278737
      4587.38       2.0891960    0.0035581926
      4591.97       2.0887817    0.0036039744
      4596.56       2.0906792    0.0035336608
      4601.16       2.0896966    0.0035805790
      4605.76       2.0870255    0.0035095907
      4610.37       2.0847757    0.0034982502
      4614.98       2.0834013    0.0035416564
      4619.59       2.0819648    0.0034735841
      4624.21       2.0816291    0.0035182372
      4628.84       2.0782174    0.0034494134
      4633.47       2.0766954    0.0034954249
      4638.10       2.0761440    0.0034258484
      4642.74       2.0735632    0.0034143443
      4647.38       2.0718495    0.0034571586
      4652.03       2.0711413    0.0033901684
      4656.68       2.0683732    0.0034344951
      4661.34       2.0642898    0.0033666303
      4666.00       2.0615945    0.0033557072
      4670.67       2.0622232    0.0033438008
      4675.33       2.0645285    0.0033315872
      4680.01       2.0694866    0.0033223202
      4684.69       2.0709149    0.0033082160
      4689.38       2.0717380    0.0032975631
      4694.07       2.0711303    0.0032856422
      4698.76       2.0703083    0.0032736414
      4703.46       2.0700731    0.0032644105
      4708.16       2.0701730    0.0032513939
      4712.87       2.0700863    0.0032399126
      4717.58       2.0710892    0.0032283851
      4722.30       2.0737835    0.0032163158
      4727.03       2.0750643    0.0031576374
      4731.75       2.0737409    0.0031936964
      4736.48       2.0711695    0.0031827804
      4741.22       2.0700829    0.0031231074
      4745.96       2.0673065    0.0031597217
      4750.71       2.0661155    0.0031028621
      4755.46       2.0680552    0.0030892744
      4760.22       2.0726214    0.0031263480
      4764.97       2.0776178    0.0030687617
      4769.74       2.0823522    0.0031040237
      4774.51       2.0850526    0.0030934684
      4779.29       2.0891004    0.0030352819
      4784.07       2.0917449    0.0030708143
      4788.85       2.0965401    0.0030156795
      4793.64       2.1026475    0.0030023373
      4798.43       2.1086842    0.0030380473
      4803.23       2.1153094    0.0029825885
      4808.03       2.1219640    0.0029698647
      4812.84       2.1269408    0.0029641136
      4817.66       2.1294772    0.0029500043
      4822.48       2.1320077    0.0029377949
      4827.30       2.1354174    0.0029314837
      4832.12       2.1388122    0.0029178772
      4836.96       2.1415394    0.0029060931
      4841.79       2.1453050    0.0028993608
      4846.63       2.1509445    0.0028861674
      4851.48       2.1567404    0.0028747227
      4856.33       2.1613806    0.0028677072
      4861.19       2.1645553    0.0028548359
      4866.05       2.1705677    0.0028019199
      4870.92       2.1771277    0.0028364941
      4875.79       2.1832583    0.0028238672
      4880.66       2.1910729    0.0027715788
      4885.55       2.1987391    0.0028057101
      4890.43       2.2070860    0.0027932602
      4895.32       2.2151762    0.0027415239
      4900.22       2.2220634    0.0027753415
      4905.12       2.2292222    0.0027629937
      4910.02       2.2355105    0.0027117494
      4914.94       2.2435105    0.0027023757
      4919.85       2.2494643    0.0027330954
      4924.77       2.2549486    0.0026822776
      4929.70       2.2600703    0.0026728392
      4934.62       2.2667652    0.0027035827
      4939.56       2.2726581    0.0026531232
      4944.50       2.2781019    0.0026435758
      4949.44       2.2835097    0.0026744510
      4954.39       2.2902855    0.0026243171
      4959.35       2.2983787    0.0026146139
      4964.31       2.3062231    0.0026061153
      4969.27       2.3131952    0.0025958976
      4974.24       2.3225623    0.0025859911
      4979.22       2.3299805    0.0025772392
      4984.20       2.3384177    0.0025679275
      4989.18       2.3468379    0.0025577643
      4994.17       2.3533530    0.0025487255
      4999.16       2.3613894    0.0025031903
      5004.16       2.3691144    0.0025299716
      5009.17       2.3790056    0.0025206153
      5014.18       2.3866698    0.0025123029
      5019.19       2.3952347    0.0025026719
      5024.21       2.4049551    0.0024929741
      5029.23       2.4155847    0.0024842689
