# starting wavelength =        3323.1325
# ending wavelength =        8883.2270
# O2 telluric scale =        0
# O2 telluric shift =        0
# H2O telluric scale =        0
# H2O telluric shift =        0
      3324.95      0.24208781     0.023339062
      3328.28      0.26997560     0.018589854
      3331.61      0.29101654     0.017047971
      3334.94      0.30595831     0.014013680
      3338.27      0.31431930     0.013087565
      3341.61      0.31972828     0.011206760
      3344.95      0.32567847     0.010650586
      3348.30      0.32887427    0.0095219361
      3351.65      0.32245212    0.0089414598
      3355.00      0.32016422    0.0086599007
      3358.35      0.32103011    0.0081238334
      3361.71      0.32648018    0.0079302747
      3365.07      0.33081385    0.0076011607
      3368.44      0.33213486    0.0074564282
      3371.81      0.33542349    0.0072467236
      3375.18      0.34176743    0.0071298097
      3378.56      0.34990568    0.0069909886
      3381.94      0.35841274    0.0068912227
      3385.32      0.36778065    0.0067138080
      3388.70      0.37256877    0.0066962758
      3392.09      0.37791817    0.0066792242
      3395.48      0.38099503    0.0067356633
      3398.88      0.38587361    0.0067193803
      3402.28      0.39093032    0.0067036239
      3405.68      0.39761203    0.0066884005
      3409.09      0.40950949    0.0066737182
      3412.49      0.43291566    0.0067266950
      3415.91      0.44802439    0.0066269322
      3419.32      0.45590524    0.0066107470
      3422.74      0.46442407    0.0065951247
      3426.17      0.47557287    0.0065800682
      3429.59      0.49122510    0.0066348968
      3433.02      0.50299141    0.0066174716
      3436.45      0.51682119    0.0066006604
      3439.89      0.52782898    0.0065844767
      3443.33      0.53546640    0.0065624660
      3446.78      0.54074502    0.0065440325
      3450.22      0.54706978    0.0065262639
      3453.67      0.55359252    0.0065091442
      3457.13      0.55885027    0.0064926877
      3460.58      0.56288714    0.0065516917
      3464.04      0.56883340    0.0065364001
      3467.51      0.57087185    0.0065218291
      3470.98      0.57017976    0.0064185164
      3474.45      0.56890710    0.0064758240
      3477.92      0.57067137    0.0064596553
      3481.40      0.57459715    0.0064442292
      3484.88      0.57639389    0.0064295599
      3488.37      0.57364884    0.0064854075
      3491.86      0.57656405    0.0064680789
      3495.35      0.57971172    0.0064515813
      3498.84      0.58119104    0.0063530655
      3502.34      0.58042295    0.0064121439
      3505.84      0.58033340    0.0063939561
      3509.35      0.58152883    0.0063766359
      3512.86      0.58567423    0.0063601834
      3516.37      0.58725797    0.0064220842
      3519.89      0.59420240    0.0064072204
      3523.41      0.59961181    0.0063030645
      3526.93      0.60288878    0.0062858819
      3530.46      0.60489821    0.0063461569
      3533.99      0.60590215    0.0063305746
      3537.53      0.60693864    0.0063159691
      3541.06      0.60881828    0.0063023530
      3544.60      0.61455095    0.0062715092
      3548.15      0.62156262    0.0062552770
      3551.70      0.62787897    0.0062400565
      3555.25      0.63259915    0.0063008521
      3558.80      0.63934132    0.0062825888
      3562.36      0.64631702    0.0062654454
      3565.92      0.65416598    0.0062494200
      3569.49      0.66303480    0.0062277995
      3573.06      0.66895297    0.0062089441
      3576.64      0.67449423    0.0061912472
      3580.21      0.68134621    0.0062547024
      3583.79      0.68773973    0.0062391044
      3587.38      0.69233145    0.0062247470
      3590.96      0.70371308    0.0061178093
      3594.55      0.71205232    0.0061798998
      3598.15      0.71846463    0.0061638814
      3601.75      0.72492976    0.0061491477
      3605.35      0.73128899    0.0062112659
      3608.96      0.73667244    0.0061931972
      3612.56      0.74269302    0.0060894693
      3616.18      0.74775114    0.0060744588
      3619.79      0.75531543    0.0061370623
      3623.41      0.76096652    0.0061187136
      3627.04      0.76466804    0.0061018206
      3630.66      0.76395145    0.0061702893
      3634.29      0.76694487    0.0060632643
      3637.93      0.77257757    0.0060447323
      3641.57      0.77366052    0.0061108240
      3645.21      0.77732383    0.0060950573
      3648.86      0.78435317    0.0060809107
      3652.50      0.79043302    0.0059711990
      3656.16      0.79551380    0.0060362527
      3659.81      0.80105830    0.0060205176
      3663.47      0.80928986    0.0060064436
      3667.14      0.81864521    0.0060695907
      3670.80      0.82499865    0.0060518931
      3674.48      0.83148073    0.0059466493
      3678.15      0.83809490    0.0060140777
      3681.83      0.84422397    0.0059947582
      3685.51      0.84887877    0.0059773231
      3689.20      0.85639591    0.0060495558
      3692.88      0.85969143    0.0059393331
      3696.58      0.86219011    0.0059203660
      3700.27      0.86361363    0.0059902709
      3703.98      0.86734773    0.0059749343
      3707.68      0.87066050    0.0059616812
      3711.39      0.87078832    0.0059326492
      3715.10      0.87192359    0.0059158298
      3718.81      0.87405612    0.0059011435
      3722.53      0.87417071    0.0059699244
      3726.26      0.87477527    0.0059511537
      3729.98      0.87873547    0.0058421754
      3733.71      0.88429350    0.0059143565
      3737.45      0.88713280    0.0058941015
      3741.18      0.89031250    0.0058762863
      3744.93      0.89306481    0.0059534470
      3748.67      0.89824982    0.0058381902
      3752.42      0.90260346    0.0058190466
      3756.17      0.90816793    0.0058939915
      3759.93      0.90989517    0.0058795625
      3763.69      0.91117448    0.0058677924
      3767.45      0.91408518    0.0058357125
      3771.22      0.91544552    0.0058200385
      3774.99      0.91613483    0.0058957106
      3778.77      0.91836956    0.0058754152
      3782.54      0.92288030    0.0057615980
      3786.33      0.92623609    0.0058396966
      3790.11      0.92935622    0.0058181561
      3793.90      0.93345688    0.0057997443
      3797.70      0.93585210    0.0058828603
      3801.50      0.93719698    0.0057616063
      3805.30      0.93939248    0.0057421381
      3809.10      0.94123890    0.0058232432
      3812.91      0.94647224    0.0058098773
      3816.73      0.95615057    0.0057821161
      3820.54      0.96214695    0.0057644283
      3824.36      0.96704183    0.0057501698
      3828.19      0.97150048    0.0058270342
      3832.02      0.97789625    0.0057063027
      3835.85      0.98468103    0.0056912738
      3839.68      0.99088260    0.0057693228
      3843.52       1.0014871    0.0057493364
      3847.37       1.0108720    0.0058390635
      3851.22       1.0168404    0.0057119571
      3855.07       1.0227791    0.0056913277
      3858.92       1.0326586    0.0057793621
      3862.78       1.0414253    0.0057665838
      3866.64       1.0480865    0.0057377872
      3870.51       1.0555244    0.0057202234
      3874.38       1.0629032    0.0057070287
      3878.26       1.0687307    0.0057874518
      3882.13       1.0736555    0.0056616002
      3886.02       1.0803692    0.0056481427
      3889.90       1.0898235    0.0057283895
      3893.79       1.0967255    0.0056034271
      3897.69       1.1017212    0.0055898743
      3901.59       1.1059114    0.0056695831
      3905.49       1.1105791    0.0055456777
      3909.39       1.1130566    0.0055321838
      3913.30       1.1160267    0.0056110102
      3917.22       1.1168152    0.0054883495
      3921.13       1.1177682    0.0054750887
      3925.06       1.1160319    0.0055526764
      3928.98       1.1176095    0.0054314591
      3932.91       1.1202154    0.0054185830
      3936.84       1.1239345    0.0053920783
      3940.78       1.1258290    0.0053750173
      3944.72       1.1265984    0.0053626902
      3948.67       1.1269466    0.0053355273
      3952.61       1.1275553    0.0053190671
      3956.57       1.1285802    0.0053074515
      3960.52       1.1318360    0.0052792350
      3964.48       1.1339735    0.0052636645
      3968.45       1.1352148    0.0052529547
      3972.42       1.1372302    0.0052234740
      3976.39       1.1406086    0.0052088954
      3980.37       1.1424806    0.0050925419
      3984.35       1.1402708    0.0051682564
      3988.33       1.1409613    0.0051548359
      3992.32       1.1423533    0.0050377925
      3996.31       1.1427649    0.0051136691
      4000.31       1.1440526    0.0051015774
      4004.31       1.1482550    0.0049836115
      4008.31       1.1519749    0.0050598310
      4012.32       1.1520282    0.0049486049
      4016.33       1.1525796    0.0050209334
      4020.35       1.1522224    0.0050068753
      4024.37       1.1549933    0.0048943036
      4028.40       1.1574018    0.0049672150
      4032.42       1.1608655    0.0048607976
      4036.46       1.1617696    0.0048407947
      4040.50       1.1612739    0.0049144712
      4044.54       1.1598605    0.0048063001
      4048.58       1.1590828    0.0047882102
      4052.63       1.1614440    0.0048628811
      4056.68       1.1599300    0.0047527704
      4060.74       1.1572344    0.0048238604
      4064.80       1.1565536    0.0047192268
      4068.86       1.1564131    0.0047003514
      4072.93       1.1534645    0.0047726812
      4077.01       1.1538897    0.0046657462
      4081.08       1.1538175    0.0046491926
      4085.17       1.1497155    0.0046327919
      4089.25       1.1466605    0.0046135858
      4093.34       1.1448393    0.0046013723
      4097.43       1.1439891    0.0045795334
      4101.53       1.1439613    0.0045629153
      4105.63       1.1442451    0.0045468888
      4109.74       1.1435521    0.0045278164
      4113.85       1.1413375    0.0045155927
      4117.96       1.1407988    0.0044940650
      4122.08       1.1407236    0.0044778402
      4126.20       1.1423910    0.0044615475
      4130.33       1.1445563    0.0044430393
      4134.46       1.1454740    0.0043520562
      4138.59       1.1472769    0.0044094091
      4142.73       1.1509699    0.0043169179
      4146.88       1.1550416    0.0043768322
      4151.02       1.1569546    0.0043593654
      4155.18       1.1583454    0.0042711171
      4159.33       1.1612334    0.0043257425
      4163.49       1.1630713    0.0042359519
      4167.65       1.1644391    0.0042929945
      4171.82       1.1658987    0.0042019401
      4175.99       1.1693802    0.0042610776
      4180.17       1.1741067    0.0042433067
      4184.35       1.1766917    0.0041566235
      4188.54       1.1760682    0.0042103951
      4192.72       1.1745881    0.0041226470
      4196.92       1.1751429    0.0041782281
      4201.11       1.1754083    0.0040894089
      4205.31       1.1772483    0.0040792484
      4209.52       1.1778551    0.0040568302
      4213.73       1.1798593    0.0040453090
      4217.94       1.1815763    0.0040248454
      4222.16       1.1843676    0.0040120303
      4226.38       1.1869756    0.0040650386
      4230.61       1.1898972    0.0039793489
      4234.84       1.1919050    0.0039703502
      4239.08       1.1951711    0.0039472115
      4243.32       1.1974161    0.0039370050
      4247.56       1.2000513    0.0039155551
      4251.81       1.2047716    0.0039043668
      4256.06       1.2105248    0.0038843405
      4260.32       1.2128087    0.0038721554
      4264.58       1.2132492    0.0037892321
      4268.84       1.2121718    0.0038403990
      4273.11       1.2122879    0.0037592052
      4277.38       1.2121094    0.0038090527
      4281.66       1.2131169    0.0037294652
      4285.94       1.2133299    0.0037780814
      4290.23       1.2120606    0.0037685198
      4294.52       1.2118041    0.0037474455
      4298.81       1.2099568    0.0037371911
      4303.11       1.2073830    0.0037171178
      4307.42       1.2062475    0.0037062304
      4311.72       1.2048545    0.0036256330
      4316.04       1.2025607    0.0036756160
      4320.35       1.2026412    0.0035962961
      4324.67       1.2014979    0.0036453163
      4329.00       1.1999581    0.0035671832
      4333.33       1.1991044    0.0036153080
      4337.66       1.1982117    0.0035382799
      4342.00       1.1971855    0.0035855757
      4346.34       1.1963145    0.0035095562
      4350.69       1.1961598    0.0035560938
      4355.04       1.1948409    0.0034810151
      4359.39       1.1950166    0.0035268571
      4363.75       1.1989867    0.0034526295
      4368.12       1.2010378    0.0034396744
      4372.48       1.2035761    0.0034244134
      4376.86       1.2068370    0.0034113695
      4381.23       1.2096535    0.0033963489
      4385.61       1.2135663    0.0033832823
      4390.00       1.2196749    0.0033684219
      4394.39       1.2241741    0.0033553870
      4398.79       1.2293550    0.0033406391
      4403.18       1.2344937    0.0033277211
      4407.59       1.2384340    0.0033130182
      4412.00       1.2411729    0.0033002603
      4416.41       1.2438264    0.0032855463
      4420.82       1.2472418    0.0032186867
      4425.25       1.2502221    0.0032582284
      4429.67       1.2543140    0.0031921051
      4434.10       1.2576958    0.0032310724
      4438.54       1.2640069    0.0031657432
      4442.97       1.2707479    0.0032041006
      4447.42       1.2796667    0.0031396098
      4451.86       1.2882531    0.0031773141
      4456.32       1.2976682    0.0031137424
      4460.77       1.3065472    0.0031507214
      4465.24       1.3152590    0.0030880755
      4469.70       1.3235888    0.0031243485
      4474.17       1.3300938    0.0030626968
      4478.65       1.3363156    0.0030982010
      4483.12       1.3420560    0.0030375952
      4487.61       1.3452286    0.0030212719
      4492.09       1.3481263    0.0030127857
      4496.59       1.3478826    0.0029960895
      4501.08       1.3501667    0.0029882868
      4505.58       1.3523454    0.0029711865
      4510.09       1.3538018    0.0029641212
      4514.60       1.3551525    0.0029465835
      4519.12       1.3553544    0.0029822179
      4523.63       1.3576942    0.0029222972
      4528.16       1.3581148    0.0029077685
      4532.69       1.3598576    0.0028983519
      4537.22       1.3640111    0.0028832657
      4541.76       1.3649716    0.0028747730
      4546.30       1.3657889    0.0028591012
      4550.85       1.3652494    0.0028515882
      4555.40       1.3619910    0.0028353077
      4559.95       1.3598758    0.0028288170
      4564.51       1.3570741    0.0028119108
      4569.08       1.3538305    0.0027548760
      4573.65       1.3500571    0.0027889303
      4578.22       1.3474617    0.0027744670
      4582.80       1.3438169    0.0027664036
      4587.38       1.3390653    0.0027512188
      4591.97       1.3353845    0.0026965468
      4596.56       1.3311573    0.0027284323
      4601.16       1.3275520    0.0026733895
      4605.76       1.3242127    0.0027061394
      4610.37       1.3220981    0.0026506922
      4614.98       1.3183880    0.0026843724
      4619.59       1.3149778    0.0026697253
      4624.21       1.3112712    0.0026166267
      4628.84       1.3065426    0.0026476921
      4633.47       1.3010371    0.0025941257
      4638.10       1.2952117    0.0026262362
      4642.74       1.2890430    0.0025721772
      4647.38       1.2842392    0.0025610960
      4652.03       1.2804222    0.0025508141
      4656.68       1.2755564    0.0025388479
      4661.34       1.2713016    0.0025697634
      4666.00       1.2660872    0.0025172212
      4670.67       1.2608576    0.0025066569
      4675.33       1.2578868    0.0024962408
      4680.01       1.2547378    0.0024847493
      4684.69       1.2541545    0.0024754698
      4689.38       1.2539595    0.0024635226
      4694.07       1.2546723    0.0024532519
      4698.76       1.2558665    0.0024430179
      4703.46       1.2571813    0.0024317784
      4708.16       1.2592227    0.0023852538
      4712.87       1.2625969    0.0024110642
      4717.58       1.2661777    0.0024008872
      4722.30       1.2700395    0.0023536409
      4727.03       1.2737501    0.0023799499
      4731.75       1.2760422    0.0023348675
      4736.48       1.2791206    0.0023598845
      4741.22       1.2825105    0.0023496131
      4745.96       1.2848441    0.0023039921
      4750.71       1.2870284    0.0023293808
      4755.46       1.2909077    0.0022859650
      4760.22       1.2965397    0.0022738697
      4764.97       1.2998238    0.0022995616
      4769.74       1.3023237    0.0022558148
      4774.51       1.3043497    0.0022444303
      4779.29       1.3057546    0.0022703806
      4784.07       1.3069203    0.0022263662
      4788.85       1.3103098    0.0022508893
      4793.64       1.3133368    0.0022092741
      4798.43       1.3156592    0.0021975574
      4803.23       1.3186407    0.0022221881
      4808.03       1.3221072    0.0021805245
      4812.84       1.3261696    0.0021693364
      4817.66       1.3297628    0.0021645460
      4822.48       1.3329271    0.0021523984
      4827.30       1.3382800    0.0021416654
      4832.12       1.3439962    0.0021365575
      4836.96       1.3498595    0.0021248561
      4841.79       1.3566904    0.0021145111
      4846.63       1.3627543    0.0021091923
      4851.48       1.3696676    0.0020978682
      4856.33       1.3738737    0.0020878495
      4861.19       1.3782548    0.0020824210
      4866.05       1.3816422    0.0020714155
      4870.92       1.3863080    0.0020317654
      4875.79       1.3907150    0.0020562316
      4880.66       1.3954859    0.0020454846
      4885.55       1.3981266    0.0020063979
      4890.43       1.4010682    0.0019980500
      4895.32       1.4056468    0.0020200620
      4900.22       1.4109999    0.0019814930
      4905.12       1.4152229    0.0019732643
      4910.02       1.4184008    0.0019951664
      4914.94       1.4206924    0.0019570512
      4919.85       1.4234359    0.0019489006
      4924.77       1.4263243    0.0019707885
      4929.70       1.4281977    0.0019330830
      4934.62       1.4284919    0.0019249729
      4939.56       1.4301760    0.0019469487
      4944.50       1.4329850    0.0019096096
      4949.44       1.4343620    0.0019014942
      4954.39       1.4378344    0.0018943129
      4959.35       1.4427276    0.0018866440
      4964.31       1.4480530    0.0018785043
      4969.27       1.4562812    0.0018712494
      4974.24       1.4640932    0.0018642197
      4979.22       1.4729693    0.0018560236
      4984.20       1.4858072    0.0018486749
      4989.18       1.4982013    0.0018152158
      4994.17       1.5093699    0.0018340826
      4999.16       1.5188763    0.0018266202
      5004.16       1.5266062    0.0018199587
      5009.17       1.5345415    0.0018127208
      5014.18       1.5431307    0.0018051177
      5019.19       1.5509011    0.0017982835
      5024.21       1.5580291    0.0017656446
      5029.23       1.5639889    0.0017842224
      5034.26       1.5716959    0.0017772026
      5039.30       1.5809945    0.0017458800
      5044.34       1.5902462    0.0017380780
      5049.39       1.5996389    0.0017567543
      5054.43       1.6095458    0.0017502342
      5059.49       1.6194838    0.0017188600
      5064.55       1.6304304    0.0017115364
      5069.61       1.6405550    0.0017302432
      5074.68       1.6519944    0.0017003715
      5079.76       1.6641788    0.0016928503
      5084.84       1.6739189    0.0016859291
      5089.92       1.6820269    0.0017046037
      5095.01       1.6894345    0.0016749442
      5100.11       1.6971391    0.0016677974
      5105.21       1.7027823    0.0016612120
