# starting wavelength =        3651.3700
# ending wavelength =        7401.3800
# O2 telluric scale =        0
# O2 telluric shift =        0
# H2O telluric scale =        0
# H2O telluric shift =        0
      3652.50       1.4238561     0.034024754
      3656.16       1.4128844     0.028830361
      3659.81       1.4010876     0.024691750
      3663.47       1.3893579     0.021969540
      3667.14       1.3795754     0.019311247
      3670.80       1.3700348     0.017223692
      3674.48       1.3605197     0.015330949
      3678.15       1.3517877     0.014135603
      3681.83       1.3416942     0.013215813
      3685.51       1.3333508     0.012503220
      3689.20       1.3198048     0.012015031
      3692.88       1.3132668     0.011549280
      3696.58       1.3082718     0.011178421
      3700.27       1.3004251     0.010802498
      3703.98       1.2948136     0.010563909
      3707.68       1.2901928     0.010365401
      3711.39       1.2821394     0.010151600
      3715.10       1.2777907     0.010000016
      3718.81       1.2744626    0.0098701571
      3722.53       1.2710530    0.0098387705
      3726.26       1.2668695    0.0098653664
      3729.98       1.2580268    0.0098926930
      3733.71       1.2557524    0.0098110278
      3737.45       1.2562329    0.0098379821
      3741.18       1.2575958    0.0098662745
      3744.93       1.2636831    0.0098343291
      3748.67       1.2687492    0.0098120255
      3752.42       1.2742296    0.0098396593
      3756.17       1.2839727    0.0098089004
      3759.93       1.2928274    0.0098372340
      3763.69       1.2974492    0.0098156751
      3767.45       1.2993121    0.0097830157
      3771.22       1.3022509    0.0098125869
      3774.99       1.3061170    0.0098431434
      3778.77       1.3164325    0.0097580720
      3782.54       1.3246121    0.0097890508
      3786.33       1.3333405    0.0098191095
      3790.11       1.3452138    0.0097884674
      3793.90       1.3529837    0.0098195589
      3797.70       1.3564748    0.0097983871
      3801.50       1.3629964    0.0097654634
      3805.30       1.3647558    0.0097973680
      3809.10       1.3639658    0.0098313150
      3812.91       1.3673641    0.0097991177
      3816.73       1.3663962    0.0097776631
      3820.54       1.3707700    0.0097449570
      3824.36       1.3698628    0.0097783439
      3828.19       1.3686322    0.0098135937
      3832.02       1.3645057    0.0097816262
      3835.85       1.3610824    0.0098172170
      3839.68       1.3668640    0.0097936105
      3843.52       1.3654863    0.0097622974
      3847.37       1.3672682    0.0097992578
      3851.22       1.3700217    0.0097672685
      3855.07       1.3755801    0.0098042775
      3858.92       1.3805773    0.0098423023
      3862.78       1.3844930    0.0097494645
      3866.64       1.3837445    0.0097886390
      3870.51       1.3888836    0.0097562921
      3874.38       1.3918477    0.0097946052
      3878.26       1.4005622    0.0098349283
      3882.13       1.4129208    0.0098029803
      3886.02       1.4151881    0.0098437082
      3889.90       1.4223909    0.0097490000
      3893.79       1.4322457    0.0097884450
      3897.69       1.4337876    0.0098318980
      3901.59       1.4319399    0.0097992992
      3905.49       1.4287243    0.0098409539
      3909.39       1.4347177    0.0098108620
      3913.30       1.4315476    0.0098537068
      3917.22       1.4361527    0.0098977880
      3921.13       1.4415786    0.0098677939
      3925.06       1.4440826    0.0099128648
      3928.98       1.4457868    0.0098117207
      3932.91       1.4523868    0.0098590228
      3936.84       1.4526903    0.0098263864
      3940.78       1.4549812    0.0098724518
      3944.72       1.4542670    0.0099227872
      3948.67       1.4537492    0.0098898750
      3952.61       1.4577709    0.0099382588
      3956.57       1.4689923    0.0099081428
      3960.52       1.4716276    0.0099584053
      3964.48       1.4838937    0.0099266053
      3968.45       1.5023272    0.0099787565
      3972.42       1.5134359     0.010032950
      3976.39       1.5138705     0.010000459
      3980.37       1.5132524     0.010055210
      3984.35       1.5160991     0.010025677
      3988.33       1.5158717     0.010080388
      3992.32       1.5193217    0.0099673486
      3996.31       1.5171777     0.010026292
      4000.31       1.5176561    0.0099930645
      4004.31       1.5109921     0.010049309
      4008.31       1.5089730     0.010113726
      4012.32       1.4952196     0.010079352
      4016.33       1.4780637     0.010138324
      4020.35       1.4645296     0.010106733
      4024.37       1.4426143     0.010173504
      4028.40       1.4256661     0.010139397
      4032.42       1.4141165     0.010106945
      4036.46       1.4123357     0.010170562
      4040.50       1.4094181     0.010052974
      4044.54       1.4035985     0.010019743
      4048.58       1.4012960    0.0099876168
      4052.63       1.4068133    0.0099567166
      4056.68       1.4040924    0.0099341117
      4060.74       1.4136281    0.0099014495
      4064.80       1.4286166    0.0098699676
      4068.86       1.4423496    0.0097530031
      4072.93       1.4530441    0.0098173051
      4077.01       1.4433738    0.0097849582
      4081.08       1.4362425    0.0097534798
      4085.17       1.4412881    0.0096378190
      4089.25       1.4359337    0.0096086534
      4093.34       1.4255842    0.0096699450
      4097.43       1.4193939    0.0096386577
      4101.53       1.4154825    0.0095240576
      4105.63       1.4045744    0.0094947780
      4109.74       1.3926500    0.0094663796
      4113.85       1.3841364    0.0094388209
      4117.96       1.3734836    0.0094122084
      4122.08       1.3636355    0.0093829807
      4126.20       1.3622886    0.0093541401
      4130.33       1.3702845    0.0093260513
      4134.46       1.3692013    0.0092986810
      4138.59       1.3647905    0.0091889318
      4142.73       1.3650130    0.0092437457
      4146.88       1.3594872    0.0092154868
      4151.02       1.3420885    0.0091875086
      4155.18       1.3327417    0.0090822415
      4159.33       1.3290686    0.0090530566
      4163.49       1.3244985    0.0090245957
      4167.65       1.3082515    0.0090787066
      4171.82       1.2947900    0.0090512715
      4175.99       1.2874256    0.0089491712
      4180.17       1.2837470    0.0089202298
      4184.35       1.2705898    0.0088919658
      4188.54       1.2628389    0.0088640271
      4192.72       1.2564146    0.0088365570
      4196.92       1.2548719    0.0088095732
      4201.11       1.2484910    0.0087904062
      4205.31       1.2477217    0.0087622383
      4209.52       1.2487399    0.0087343443
      4213.73       1.2493083    0.0087067226
      4217.94       1.2519613    0.0086795149
      4222.16       1.2506039    0.0086528919
      4226.38       1.2475863    0.0085535448
      4230.61       1.2477874    0.0085277295
      4234.84       1.2544737    0.0085020958
      4239.08       1.2539592    0.0085534490
      4243.32       1.2510525    0.0085265033
      4247.56       1.2545816    0.0085000622
      4251.81       1.2567678    0.0084021528
      4256.06       1.2631616    0.0083764460
      4260.32       1.2648168    0.0083508310
      4264.58       1.2699351    0.0083255188
      4268.84       1.2751414    0.0083005693
      4273.11       1.2800037    0.0082757071
      4277.38       1.2932492    0.0082510963
      4281.66       1.3067468    0.0082265474
      4285.94       1.3208461    0.0081324119
      4290.23       1.3369331    0.0081075566
      4294.52       1.3556987    0.0081539824
      4298.81       1.3701767    0.0081290420
      4303.11       1.3807657    0.0081043241
      4307.42       1.3951139    0.0080798353
      4311.72       1.4072684    0.0080555107
      4316.04       1.4121694    0.0080313897
      4320.35       1.4163651    0.0080072977
      4324.67       1.4214197    0.0079192053
      4329.00       1.4252651    0.0078948853
      4333.33       1.4243464    0.0078706938
      4337.66       1.4256426    0.0078465309
      4342.00       1.4222369    0.0078225677
      4346.34       1.4191026    0.0077988234
      4350.69       1.4160259    0.0077750321
      4355.04       1.4140664    0.0077516042
      4359.39       1.4202819    0.0077283549
      4363.75       1.4206351    0.0077050618
      4368.12       1.4195323    0.0076818066
      4372.48       1.4230678    0.0076588475
      4376.86       1.4291670    0.0076359238
      4381.23       1.4301946    0.0075508802
      4385.61       1.4349809    0.0075283173
      4390.00       1.4335531    0.0075058901
      4394.39       1.4296294    0.0074833338
      4398.79       1.4272354    0.0074611389
      4403.18       1.4270988    0.0074390656
      4407.59       1.4241940    0.0074168327
      4412.00       1.4233386    0.0073947175
      4416.41       1.4217923    0.0073729857
      4420.82       1.4194565    0.0073511030
      4425.25       1.4175437    0.0073293128
      4429.67       1.4156375    0.0073076464
      4434.10       1.4181713    0.0072861057
      4438.54       1.4205253    0.0072645182
      4442.97       1.4265563    0.0072431394
      4447.42       1.4263772    0.0072218896
      4451.86       1.4280434    0.0072005448
      4456.32       1.4356703    0.0071792908
      4460.77       1.4404821    0.0070979195
      4465.24       1.4436482    0.0070772020
      4469.70       1.4476446    0.0070565144
      4474.17       1.4464193    0.0070359647
      4478.65       1.4501118    0.0070156633
      4483.12       1.4529758    0.0069951978
      4487.61       1.4536767    0.0069749853
      4492.09       1.4577367    0.0069549174
      4496.59       1.4575692    0.0069348980
      4501.08       1.4542163    0.0069149760
      4505.58       1.4549752    0.0068952957
      4510.09       1.4553889    0.0068756897
      4514.60       1.4527184    0.0068561239
      4519.12       1.4534100    0.0067775173
      4523.63       1.4482611    0.0067578863
      4528.16       1.4473498    0.0067384301
      4532.69       1.4387886    0.0067190087
      4537.22       1.4347902    0.0066997618
      4541.76       1.4279850    0.0066807136
      4546.30       1.4195329    0.0066616554
      4550.85       1.4154858    0.0066957777
      4555.40       1.4124078    0.0066769705
      4559.95       1.4049057    0.0066031970
      4564.51       1.3993792    0.0065839079
      4569.08       1.3919517    0.0065649092
      4573.65       1.3875525    0.0065460080
      4578.22       1.3832572    0.0065273585
      4582.80       1.3739535    0.0065087692
      4587.38       1.3688038    0.0064904933
      4591.97       1.3667704    0.0064195111
      4596.56       1.3618771    0.0064018583
      4601.16       1.3594966    0.0063843290
      4605.76       1.3567003    0.0063670541
      4610.37       1.3505842    0.0063978291
      4614.98       1.3485444    0.0063797068
      4619.59       1.3406119    0.0063618501
      4624.21       1.3398025    0.0062924067
      4628.84       1.3331518    0.0062751793
      4633.47       1.3257964    0.0062582091
      4638.10       1.3208214    0.0062414351
      4642.74       1.3107676    0.0062250973
      4647.38       1.3028501    0.0061559999
      4652.03       1.2954339    0.0061863568
      4656.68       1.2905781    0.0061694219
      4661.34       1.2837772    0.0061529364
      4666.00       1.2767386    0.0061367514
      4670.67       1.2663270    0.0060702299
      4675.33       1.2593423    0.0060533184
      4680.01       1.2542272    0.0060368565
      4684.69       1.2492103    0.0060671914
      4689.38       1.2453003    0.0060512610
      4694.07       1.2378482    0.0059864711
      4698.76       1.2358564    0.0059699135
      4703.46       1.2363406    0.0059537340
      4708.16       1.2358916    0.0059378100
      4712.87       1.2382207    0.0059222962
      4717.58       1.2333854    0.0059046397
      4722.30       1.2274215    0.0058884362
      4727.03       1.2241296    0.0058724612
      4731.75       1.2199570    0.0058570328
      4736.48       1.2182880    0.0057958547
      4741.22       1.2147936    0.0058246893
      4745.96       1.2118145    0.0058087897
      4750.71       1.2064728    0.0057935164
      4755.46       1.2037144    0.0057329453
      4760.22       1.2025869    0.0057186477
      4764.97       1.2018839    0.0057047395
      4769.74       1.1983341    0.0057313161
      4774.51       1.1932853    0.0056714749
      4779.29       1.1924145    0.0056574192
      4784.07       1.1885001    0.0056438465
      4788.85       1.1893374    0.0056256147
      4793.64       1.1874529    0.0056113652
      4798.43       1.1831729    0.0055976604
      4803.23       1.1803751    0.0055844367
      4808.03       1.1749004    0.0055251698
      4812.84       1.1659308    0.0055527673
      4817.66       1.1592709    0.0055395175
      4822.48       1.1560485    0.0054817622
      4827.30       1.1546956    0.0054678405
      4832.12       1.1508663    0.0054955035
      4836.96       1.1486771    0.0054392659
      4841.79       1.1503240    0.0054252367
      4846.63       1.1525022    0.0054118363
      4851.48       1.1598411    0.0053974412
      4856.33       1.1593353    0.0053834794
      4861.19       1.1550674    0.0053700766
      4866.05       1.1568686    0.0053164039
      4870.92       1.1638258    0.0053424547
      4875.79       1.1635044    0.0053291906
      4880.66       1.1629812    0.0052758813
      4885.55       1.1655307    0.0053021993
      4890.43       1.1674625    0.0052889243
      4895.32       1.1712254    0.0052361488
      4900.22       1.1732551    0.0052244379
      4905.12       1.1722405    0.0052494248
      4910.02       1.1789963    0.0051970939
      4914.94       1.1860582    0.0051856219
      4919.85       1.1930374    0.0052106397
      4924.77       1.1954765    0.0051588069
      4929.70       1.2007121    0.0051476770
      4934.62       1.2085156    0.0051330656
      4939.56       1.2151649    0.0051214227
      4944.50       1.2196977    0.0051105596
      4949.44       1.2281212    0.0050959395
      4954.39       1.2368913    0.0050846712
      4959.35       1.2439816    0.0050345832
      4964.31       1.2524872    0.0050596019
      4969.27       1.2618609    0.0050486831
      4974.24       1.2689207    0.0049987060
      4979.22       1.2830093    0.0050239921
      4984.20       1.2916057    0.0049752494
      4989.18       1.3003918    0.0049636142
      4994.17       1.3079713    0.0049891939
      4999.16       1.3132014    0.0049404185
      5004.16       1.3197735    0.0049294388
      5009.17       1.3230257    0.0049176912
      5014.18       1.3244358    0.0049062983
      5019.19       1.3244600    0.0048597580
      5024.21       1.3224890    0.0048838318
      5029.23       1.3229453    0.0048372246
      5034.26       1.3240821    0.0048617449
      5039.30       1.3222460    0.0048508677
      5044.34       1.3287922    0.0048053543
      5049.39       1.3301067    0.0048291140
      5054.43       1.3272373    0.0047835158
      5059.49       1.3280702    0.0048076074
      5064.55       1.3317214    0.0047620043
      5069.61       1.3334176    0.0047530136
      5074.68       1.3367746    0.0047409381
      5079.76       1.3363740    0.0047317910
      5084.84       1.3376569    0.0047202243
      5089.92       1.3377132    0.0047109859
      5095.01       1.3393132    0.0046666468
      5100.11       1.3399828    0.0046905911
      5105.21       1.3396647    0.0046468036
      5110.31       1.3377289    0.0046705692
      5115.42       1.3350107    0.0046272047
      5120.54       1.3333851    0.0046507861
      5125.66       1.3302384    0.0046079163
      5130.79       1.3243330    0.0045986422
      5135.92       1.3184497    0.0045888646
      5141.05       1.3102293    0.0045795762
      5146.20       1.3037508    0.0045700026
      5151.34       1.2948944    0.0045609126
      5156.49       1.2879373    0.0045515390
      5161.65       1.2836959    0.0045424896
      5166.81       1.2724418    0.0045332609
      5171.98       1.2630632    0.0045244121
      5177.15       1.2534633    0.0045152825
      5182.33       1.2432081    0.0044743875
      5187.51       1.2331143    0.0044975470
      5192.70       1.2256799    0.0044570108
      5197.89       1.2203866    0.0044800255
      5203.09       1.2124437    0.0044398532
      5208.29       1.2096975    0.0044628047
      5213.50       1.2029212    0.0044230753
      5218.72       1.1951140    0.0044458515
      5223.93       1.1908195    0.0044065655
      5229.16       1.1867542    0.0043975714
      5234.39       1.1853709    0.0043904614
      5239.62       1.1846417    0.0043814249
      5244.86       1.1878039    0.0043746600
      5250.11       1.1871716    0.0043655438
      5255.36       1.1867291    0.0043272682
      5260.61       1.1847810    0.0043500175
      5265.87       1.1792600    0.0043116817
      5271.14       1.1785363    0.0043348375
      5276.41       1.1721875    0.0042964490
      5281.69       1.1649001    0.0042889007
      5286.97       1.1622020    0.0042815992
      5292.26       1.1608778    0.0042738631
      5297.55       1.1586124    0.0042669579
      5302.85       1.1531698    0.0042591969
      5308.15       1.1508041    0.0042520305
      5313.46       1.1433646    0.0042480456
      5318.77       1.1363447    0.0042376741
      5324.09       1.1340171    0.0042020518
      5329.42       1.1287618    0.0042236560
      5334.75       1.1261937    0.0042167410
      5340.08       1.1231176    0.0041810341
      5345.42       1.1196354    0.0042029389
      5350.77       1.1138705    0.0041681098
      5356.12       1.1093022    0.0041607582
      5361.48       1.1056042    0.0041828654
      5366.83       1.1003611    0.0041481057
      5372.20       1.0982953    0.0041410271
      5377.58       1.0929469    0.0041361022
      5382.95       1.0889982    0.0041287781
      5388.34       1.0853529    0.0041220083
      5393.72       1.0841647    0.0040880087
      5399.12       1.0852365    0.0041100191
      5404.52       1.0795801    0.0041034821
      5409.92       1.0758028    0.0040697039
      5415.33       1.0723478    0.0040917881
      5420.75       1.0635035    0.0040578255
      5426.17       1.0656142    0.0040519825
      5431.60       1.0603875    0.0040465765
      5437.03       1.0577941    0.0040404446
      5442.47       1.0554695    0.0040347313
      5447.91       1.0510629    0.0040294314
      5453.36       1.0462582    0.0040237008
      5458.81       1.0412494    0.0040179958
      5464.27       1.0368372    0.0040127570
      5469.73       1.0314173    0.0039806684
      5475.20       1.0274322    0.0040018523
      5480.68       1.0224336    0.0039965600
      5486.16       1.0185789    0.0039651888
      5491.65       1.0155842    0.0039595948
      5497.14       1.0126435    0.0039809557
      5502.64       1.0098572    0.0039760630
      5508.14       1.0014306    0.0039447772
      5513.65      0.99819887    0.0039395154
      5519.16      0.99412868    0.0039345453
      5524.68      0.98853228    0.0039305977
      5530.20      0.98666335    0.0039253155
      5535.73      0.98020778    0.0039203065
      5541.27      0.97678769    0.0038896630
      5546.81      0.97127957    0.0038851996
      5552.36      0.96733084    0.0039068300
      5557.91      0.96575690    0.0039020133
      5563.47      0.96360588    0.0038716024
      5569.04      0.96274892    0.0038672987
      5574.60      0.96099378    0.0038632354
      5580.18      0.95958180    0.0038845950
      5585.76      0.96177304    0.0038544174
      5591.35      0.96326150    0.0038501864
      5596.94      0.96453581    0.0038461759
      5602.53      0.96287708    0.0038423452
      5608.14      0.96491372    0.0038132253
