# starting wavelength =        3711.8400
# ending wavelength =        7523.9600
# O2 telluric scale =        0
# O2 telluric shift =        0
# H2O telluric scale =        0
# H2O telluric shift =        0
      3715.10      0.24291448    0.0071289081
      3718.81      0.24008991    0.0060711172
      3722.53      0.23682973    0.0050781826
      3726.26      0.23411970    0.0044504549
      3729.98      0.23164902    0.0039566294
      3733.71      0.22869453    0.0036498764
      3737.45      0.22603601    0.0033362959
      3741.18      0.22443808    0.0030944274
      3744.93      0.22270518    0.0029078256
      3748.67      0.21865355    0.0027368286
      3752.42      0.21452212    0.0026291422
      3756.17      0.21213979    0.0025442492
      3759.93      0.21145392    0.0024768257
      3763.69      0.20941393    0.0024176780
      3767.45      0.20790141    0.0023690207
      3771.22      0.20673581    0.0023149230
      3774.99      0.20497232    0.0022815681
      3778.77      0.20368316    0.0022532664
      3782.54      0.20444306    0.0022394738
      3786.33      0.20543765    0.0022500462
      3790.11      0.20671412    0.0022488117
      3793.90      0.20679669    0.0022468695
      3797.70      0.20737997    0.0022577364
      3801.50      0.20828279    0.0022687814
      3805.30      0.21046689    0.0022544995
      3809.10      0.21343909    0.0022656040
      3812.91      0.21696417    0.0022767446
      3816.73      0.22247318    0.0022753473
      3820.54      0.22933382    0.0022735428
      3824.36      0.23561679    0.0022852136
      3828.19      0.24227321    0.0022833598
      3832.02      0.25001114    0.0022950723
      3835.85      0.25693043    0.0022934277
      3839.68      0.26533782    0.0022918183
      3843.52      0.27499355    0.0023037264
      3847.37      0.28373284    0.0023156742
      3851.22      0.29408735    0.0023142911
      3855.07      0.30331903    0.0023124469
      3858.92      0.31270907    0.0023250801
      3862.78      0.32123001    0.0023231536
      3866.64      0.33197304    0.0023356335
      3870.51      0.34120944    0.0023484850
      3874.38      0.34806807    0.0023323533
      3878.26      0.35559690    0.0023453683
      3882.13      0.36553258    0.0023434949
      3886.02      0.37397000    0.0023564828
      3889.90      0.37959769    0.0023697621
      3893.79      0.38565673    0.0023531353
      3897.69      0.39190139    0.0023666285
      3901.59      0.39888549    0.0023797965
      3905.49      0.40686661    0.0023782483
      3909.39      0.41339659    0.0023920703
      3913.30      0.41916929    0.0023903569
      3917.22      0.42571885    0.0023889788
      3921.13      0.43148464    0.0024026448
      3925.06      0.43619339    0.0024010876
      3928.98      0.44224872    0.0024155582
      3932.91      0.44978384    0.0024137560
      3936.84      0.45668823    0.0024284203
      3940.78      0.45995257    0.0024433485
      3944.72      0.46594744    0.0024249633
      3948.67      0.47149849    0.0024402756
      3952.61      0.47637504    0.0024383628
      3956.57      0.48193366    0.0024534864
      3960.52      0.48613535    0.0024693544
      3964.48      0.49085277    0.0024674963
      3968.45      0.49412808    0.0024833547
      3972.42      0.49852541    0.0024821563
      3976.39      0.50407334    0.0024979873
      3980.37      0.50643613    0.0024968777
      3984.35      0.51014787    0.0024947545
      3988.33      0.51386504    0.0025110116
      3992.32      0.51510231    0.0025095311
      3996.31      0.51607799    0.0025266169
      4000.31      0.51750801    0.0025436178
      4004.31      0.51815058    0.0025421385
      4008.31      0.51830486    0.0025600759
      4012.32      0.51770328    0.0025582356
      4016.33      0.51755617    0.0025763407
      4020.35      0.51369199    0.0025751980
      4024.37      0.51001957    0.0025934013
      4028.40      0.50881711    0.0026123980
      4032.42      0.50627652    0.0025902577
      4036.46      0.50153027    0.0026087417
      4040.50      0.49887910    0.0026071216
      4044.54      0.49431710    0.0026273594
      4048.58      0.49022050    0.0026252911
      4052.63      0.48568525    0.0026449012
      4056.68      0.48311470    0.0026434840
      4060.74      0.48092650    0.0026642666
      4064.80      0.47763365    0.0026847957
      4068.86      0.47567442    0.0026832616
      4072.93      0.47178755    0.0027055816
      4077.01      0.47021463    0.0027035207
      4081.08      0.46878428    0.0027253215
      4085.17      0.46720487    0.0027239475
      4089.25      0.46540378    0.0027471853
      4093.34      0.46304421    0.0027452039
      4097.43      0.46072638    0.0027435627
      4101.53      0.45742383    0.0027422026
      4105.63      0.45580954    0.0027399591
      4109.74      0.45499826    0.0027380378
      4113.85      0.45538665    0.0027364355
      4117.96      0.45416467    0.0027350612
      4122.08      0.45340756    0.0027328683
      4126.20      0.45375168    0.0027309907
      4130.33      0.45307247    0.0027294242
      4134.46      0.45307905    0.0027281366
      4138.59      0.45436087    0.0027259636
      4142.73      0.45335517    0.0027240687
      4146.88      0.45395714    0.0026974637
      4151.02      0.45462878    0.0026960870
      4155.18      0.45619723    0.0027191565
      4159.33      0.45884791    0.0027171983
      4163.49      0.46078272    0.0026905385
      4167.65      0.45951162    0.0026890552
      4171.82      0.45764101    0.0026877712
      4175.99      0.45861931    0.0026867408
      4180.17      0.46011789    0.0026837226
      4184.35      0.46366463    0.0026821023
      4188.54      0.46580840    0.0026806901
      4192.72      0.46674119    0.0026794766
      4196.92      0.46879598    0.0026784419
      4201.11      0.47272188    0.0026754184
      4205.31      0.47940479    0.0026738270
      4209.52      0.48363137    0.0026723902
      4213.73      0.48922988    0.0026711221
      4217.94      0.49244392    0.0026459653
      4222.16      0.49594994    0.0026441719
      4226.38      0.50009074    0.0026425186
      4230.61      0.50411977    0.0026639709
      4234.84      0.50733891    0.0026625912
      4239.08      0.51184755    0.0026379158
      4243.32      0.51520664    0.0026360640
      4247.56      0.51787347    0.0026343506
      4251.81      0.52163083    0.0026327799
      4256.06      0.52619212    0.0026312668
      4260.32      0.53110436    0.0026303054
      4264.58      0.53644315    0.0026283637
      4268.84      0.53990282    0.0026265360
      4273.11      0.54204480    0.0026248145
      4277.38      0.54725082    0.0026231869
      4281.66      0.55279001    0.0026216031
      4285.94      0.55665662    0.0025969453
      4290.23      0.55984692    0.0025955564
      4294.52      0.56260118    0.0026172085
      4298.81      0.56424932    0.0026154258
      4303.11      0.56701406    0.0026137466
      4307.42      0.57001764    0.0026121287
      4311.72      0.57228649    0.0025874887
      4316.04      0.57518193    0.0025860202
      4320.35      0.57919336    0.0025846091
      4324.67      0.58196260    0.0025832421
      4329.00      0.58515620    0.0025819187
      4333.33      0.58690846    0.0025806362
      4337.66      0.58991738    0.0025793915
      4342.00      0.59224098    0.0025781775
      4346.34      0.59452191    0.0025751748
      4350.69      0.59567695    0.0025736348
      4355.04      0.59867817    0.0025721408
      4359.39      0.60197232    0.0025706918
      4363.75      0.60574479    0.0025692912
      4368.12      0.61045913    0.0025678882
      4372.48      0.61619578    0.0025665605
      4376.86      0.62160285    0.0025652265
      4381.23      0.62726550    0.0025420544
      4385.61      0.63295100    0.0025404790
      4390.00      0.63952006    0.0025389302
      4394.39      0.64609712    0.0025374055
      4398.79      0.65414864    0.0025359025
      4403.18      0.66331494    0.0025343749
      4407.59      0.67155845    0.0025328895
      4412.00      0.68048839    0.0025314379
      4416.41      0.68916363    0.0025300141
      4420.82      0.70099365    0.0025286075
      4425.25      0.71357778    0.0025272139
      4429.67      0.72667128    0.0025258273
      4434.10      0.74178022    0.0025028357
      4438.54      0.75794205    0.0025014651
      4442.97      0.77281554    0.0025000888
      4447.42      0.79043032    0.0024987090
      4451.86      0.80763538    0.0024973277
      4456.32      0.82461009    0.0024959378
      4460.77      0.84208448    0.0024945436
      4465.24      0.86044105    0.0024931469
      4469.70      0.87919556    0.0024917538
      4474.17      0.89975092    0.0024903573
      4478.65      0.91864197    0.0024889716
      4483.12      0.93716304    0.0024875958
      4487.61      0.95493551    0.0024862401
      4492.09      0.97298698    0.0024848487
      4496.59      0.99068737    0.0024834559
      4501.08       1.0082837    0.0024820630
      4505.58       1.0271520    0.0024806638
      4510.09       1.0451575    0.0024792617
      4514.60       1.0626393    0.0024778565
      4519.12       1.0793742    0.0024764265
      4523.63       1.0941803    0.0024750169
      4528.16       1.1065925    0.0024736163
      4532.69       1.1194308    0.0024722229
      4537.22       1.1293683    0.0024708384
      4541.76       1.1394563    0.0024694523
      4546.30       1.1487507    0.0024680665
      4550.85       1.1571189    0.0024666807
      4555.40       1.1656046    0.0024454120
      4559.95       1.1743581    0.0024440486
      4564.51       1.1803742    0.0024426745
      4569.08       1.1866484    0.0024413045
      4573.65       1.1927639    0.0024399418
      4578.22       1.1980415    0.0024385877
      4582.80       1.1999775    0.0024372479
      4587.38       1.2005836    0.0024359271
      4591.97       1.2000574    0.0024346307
      4596.56       1.1965726    0.0024333656
      4601.16       1.1916250    0.0024321387
      4605.76       1.1840087    0.0024112484
      4610.37       1.1770486    0.0024098061
      4614.98       1.1682914    0.0024083779
      4619.59       1.1582136    0.0024069711
      4624.21       1.1454089    0.0024055894
      4628.84       1.1321923    0.0024041946
      4633.47       1.1181022    0.0024028483
      4638.10       1.1050178    0.0024015488
      4642.74       1.0920256    0.0024002983
      4647.38       1.0786009    0.0024001344
      4652.03       1.0676800    0.0023986122
      4656.68       1.0573016    0.0023971242
      4661.34       1.0475444    0.0023956731
      4666.00       1.0367130    0.0023942548
      4670.67       1.0261275    0.0023928743
      4675.33       1.0151811    0.0023915375
      4680.01       1.0047796    0.0023715952
      4684.69      0.99542883    0.0023703629
      4689.38      0.98638822    0.0023691836
      4694.07      0.97961373    0.0023680629
      4698.76      0.97387091    0.0023855844
      4703.46      0.96757907    0.0023841340
      4708.16      0.96285372    0.0023641595
      4712.87      0.95723748    0.0023628796
      4717.58      0.95272982    0.0023616856
      4722.30      0.94779058    0.0023605441
      4727.03      0.94237435    0.0023594827
      4731.75      0.93626073    0.0023394276
      4736.48      0.93220173    0.0023380451
      4741.22      0.93002290    0.0023555976
      4745.96      0.92600620    0.0023543514
      4750.71      0.92404221    0.0023532135
      4755.46      0.92388786    0.0023336673
      4760.22      0.92451556    0.0023322107
      4764.97      0.92487344    0.0023308549
      4769.74      0.92727432    0.0023295977
      4774.51      0.93108387    0.0023472473
      4779.29      0.93462225    0.0023279525
      4784.07      0.93908058    0.0023264281
      4788.85      0.94453728    0.0023250141
      4793.64      0.94996605    0.0023237094
      4798.43      0.95686267    0.0023049444
      4803.23      0.96174533    0.0023220069
      4808.03      0.96557152    0.0023204458
      4812.84      0.96808286    0.0023190188
      4817.66      0.96894864    0.0023002203
      4822.48      0.96938238    0.0022990982
      4827.30      0.96990347    0.0023159921
      4832.12      0.96967717    0.0023145116
      4836.96      0.97116391    0.0022956715
      4841.79      0.97319899    0.0022945348
      4846.63      0.97449784    0.0022934923
      4851.48      0.97687704    0.0023099847
      4856.33      0.97875883    0.0022910954
      4861.19      0.98039875    0.0022899113
      4866.05      0.98077407    0.0022888809
      4870.92      0.98153147    0.0022880462
      4875.79      0.98078242    0.0022865523
      4880.66      0.97937262    0.0022853750
      4885.55      0.97564153    0.0022843947
      4890.43      0.97171677    0.0022656767
      4895.32      0.96772714    0.0022820644
      4900.22      0.96432996    0.0022809264
      4905.12      0.96162977    0.0022626025
      4910.02      0.96001428    0.0022611180
      4914.94      0.95953685    0.0022598461
      4919.85      0.96130796    0.0022764864
      4924.77      0.96423341    0.0022579250
      4929.70      0.96677214    0.0022565347
      4934.62      0.96898875    0.0022730307
      4939.56      0.97173719    0.0022547709
      4944.50      0.97590487    0.0022532996
      4949.44      0.97811758    0.0022520863
      4954.39      0.97898865    0.0022516297
      4959.35      0.97750415    0.0022501027
      4964.31      0.97565264    0.0022488124
      4969.27      0.97028749    0.0022312702
      4974.24      0.96414274    0.0022468539
      4979.22      0.95753216    0.0022290108
      4984.20      0.95122745    0.0022279868
      4989.18      0.94416756    0.0022436110
      4994.17      0.93682888    0.0022258290
      4999.16      0.93076619    0.0022248162
      5004.16      0.92681112    0.0022403996
      5009.17      0.92396684    0.0022226395
      5014.18      0.92219343    0.0022216462
      5019.19      0.92099610    0.0022039603
      5024.21      0.91993176    0.0022194001
      5029.23      0.92175404    0.0022184511
      5034.26      0.92634371    0.0022006927
      5039.30      0.93283273    0.0022161855
      5044.34      0.93859907    0.0022153223
      5049.39      0.94738688    0.0021974150
      5054.43      0.95745968    0.0022129883
      5059.49      0.96833220    0.0021955170
      5064.55      0.97975527    0.0021942054
      5069.61      0.99220049    0.0021937753
      5074.68       1.0039110    0.0021922498
      5079.76       1.0146752    0.0022076892
      5084.84       1.0247829    0.0021903780
      5089.92       1.0339794    0.0021889722
      5095.01       1.0454883    0.0021885905
      5100.11       1.0565883    0.0021869960
      5105.21       1.0677222    0.0021702319
      5110.31       1.0769471    0.0021851246
      5115.42       1.0852499    0.0021837747
      5120.54       1.0916521    0.0021673015
      5125.66       1.0985295    0.0021817947
      5130.79       1.1053792    0.0021651536
      5135.92       1.1118779    0.0021798554
      5141.05       1.1192872    0.0021630581
      5146.20       1.1279380    0.0021622802
      5151.34       1.1360836    0.0021610055
      5156.49       1.1452635    0.0021600917
      5161.65       1.1553280    0.0021589475
      5166.81       1.1643809    0.0021579224
      5171.98       1.1727313    0.0021569365
      5177.15       1.1820945    0.0021558173
      5182.33       1.1908286    0.0021392201
      5187.51       1.2015162    0.0021537955
      5192.70       1.2119891    0.0021372860
      5197.89       1.2236999    0.0021517420
      5203.09       1.2350122    0.0021352957
      5208.29       1.2444754    0.0021496558
      5213.50       1.2550986    0.0021333006
      5218.72       1.2647727    0.0021319246
      5223.93       1.2746278    0.0021313575
      5229.16       1.2845987    0.0021299565
      5234.39       1.2953695    0.0021293776
      5239.62       1.3070991    0.0021279546
      5244.86       1.3190907    0.0021273532
      5250.11       1.3326278    0.0021259154
      5255.36       1.3477566    0.0021253308
      5260.61       1.3597361    0.0021238970
      5265.87       1.3722315    0.0021232532
      5271.14       1.3833829    0.0021071167
      5276.41       1.3935432    0.0021211259
      5281.69       1.4016150    0.0021050776
      5286.97       1.4097341    0.0021190351
      5292.26       1.4156375    0.0021030683
      5297.55       1.4229010    0.0021169520
      5302.85       1.4280693    0.0021010995
      5308.15       1.4309875    0.0021002056
      5313.46       1.4345653    0.0020991108
      5318.77       1.4355471    0.0020980982
      5324.09       1.4363250    0.0020971458
      5329.42       1.4359409    0.0020960586
      5334.75       1.4377699    0.0020952688
      5340.08       1.4412945    0.0020940527
      5345.42       1.4457615    0.0020784024
      5350.77       1.4519305    0.0020920880
      5356.12       1.4570340    0.0020763064
      5361.48       1.4620029    0.0020901748
      5366.83       1.4688694    0.0020742426
      5372.20       1.4758997    0.0020735285
      5377.58       1.4824051    0.0020722234
      5382.95       1.4903186    0.0020713213
      5388.34       1.4987047    0.0020707760
      5393.72       1.5090030    0.0020691864
      5399.12       1.5221198    0.0020684717
      5404.52       1.5349609    0.0020531929
      5409.92       1.5477127    0.0020662500
      5415.33       1.5618908    0.0020512789
      5420.75       1.5752465    0.0020641589
      5426.17       1.5887524    0.0020633725
      5431.60       1.6004146    0.0020482219
      5437.03       1.6107464    0.0020611627
      5442.47       1.6184423    0.0020463787
      5447.91       1.6209316    0.0020451909
      5453.36       1.6221732    0.0020582048
      5458.81       1.6186074    0.0020433414
      5464.27       1.6131074    0.0020422283
      5469.73       1.6053079    0.0020272673
      5475.20       1.5945325    0.0020402961
      5480.68       1.5821884    0.0020392147
      5486.16       1.5699643    0.0020242766
      5491.65       1.5543844    0.0020372549
      5497.14       1.5397148    0.0020361362
      5502.64       1.5286372    0.0020212119
      5508.14       1.5188207    0.0020341842
      5513.65       1.5096216    0.0020330632
      5519.16       1.5029221    0.0020181210
      5524.68       1.4977715    0.0020174148
      5530.20       1.4940357    0.0020160104
      5535.73       1.4916936    0.0020150706
      5541.27       1.4911125    0.0020142812
      5546.81       1.4913824    0.0019997272
      5552.36       1.4913838    0.0020119498
      5557.91       1.4931872    0.0020110973
      5563.47       1.4941887    0.0019967392
      5569.04       1.4950780    0.0019956597
      5574.60       1.4947375    0.0020079483
      5580.18       1.4930140    0.0020071592
      5585.76       1.4894961    0.0019926528
      5591.35       1.4816081    0.0019916133
      5596.94       1.4704998    0.0020038950
      5602.53       1.4592916    0.0019896879
      5608.14       1.4466916    0.0019885218
      5613.75       1.4316120    0.0019874805
      5619.36       1.4148457    0.0019732278
      5624.98       1.3965356    0.0019855088
      5630.60       1.3771995    0.0019843379
      5636.23       1.3584101    0.0019832880
      5641.87       1.3399774    0.0019690412
      5647.51       1.3207417    0.0019682053
      5653.16       1.3033335    0.0019801665
      5658.82       1.2854431    0.0019790922
      5664.47       1.2693698    0.0019648031
      5670.14       1.2540530    0.0019639063
      5675.81       1.2410358    0.0019630750
      5681.48       1.2300923    0.0019748925
      5687.17       1.2211044    0.0019605862
      5692.85       1.2142174    0.0019596203
      5698.55       1.2101718    0.0019586963
      5704.25       1.2075682    0.0019578168
