# starting wavelength =        3711.8400
# ending wavelength =        7523.9600
# O2 telluric scale =        0
# O2 telluric shift =        0
# H2O telluric scale =        0
# H2O telluric shift =        0
      3715.10      0.62629199    0.0081845712
      3718.81      0.62129932    0.0069645465
      3722.53      0.61718407    0.0058206061
      3726.26      0.61455250    0.0050970652
      3729.98      0.61328168    0.0045278859
      3733.71      0.61328708    0.0041704693
      3737.45      0.61458219    0.0038091902
      3741.18      0.61612832    0.0035302816
      3744.93      0.61862371    0.0033148119
      3748.67      0.62179225    0.0031167733
      3752.42      0.62554232    0.0029916656
      3756.17      0.62858788    0.0028926863
      3759.93      0.63219733    0.0028124384
      3763.69      0.63608870    0.0027431085
      3767.45      0.64027381    0.0026857752
      3771.22      0.64479158    0.0026213559
      3774.99      0.64905658    0.0025815137
      3778.77      0.65378563    0.0025474593
      3782.54      0.65949152    0.0025269094
      3786.33      0.66464711    0.0025339028
      3790.11      0.66868857    0.0025285650
      3793.90      0.67239230    0.0025204800
      3797.70      0.67536324    0.0025277581
      3801.50      0.67945895    0.0025352057
      3805.30      0.68308776    0.0025143407
      3809.10      0.68660052    0.0025218400
      3812.91      0.69239002    0.0025293437
      3816.73      0.69722143    0.0025219243
      3820.54      0.70108246    0.0025160273
      3824.36      0.70620396    0.0025240743
      3828.19      0.71082000    0.0025161922
      3832.02      0.71459984    0.0025242391
      3835.85      0.71856217    0.0025185473
      3839.68      0.72487423    0.0025109759
      3843.52      0.72919734    0.0025191908
      3847.37      0.73284598    0.0025274120
      3851.22      0.73895521    0.0025200987
      3855.07      0.74421685    0.0025142377
      3858.92      0.75140823    0.0025231563
      3862.78      0.76049682    0.0025152926
      3866.64      0.76778881    0.0025239967
      3870.51      0.77390371    0.0025330670
      3874.38      0.77977550    0.0025108729
      3878.26      0.78539836    0.0025201027
      3882.13      0.78854753    0.0025123630
      3886.02      0.79359240    0.0025215143
      3889.90      0.79825516    0.0025309426
      3893.79      0.80232407    0.0025084291
      3897.69      0.80627035    0.0025180680
      3901.59      0.81076019    0.0025273214
      3905.49      0.81494911    0.0025199810
      3909.39      0.81854654    0.0025298814
      3913.30      0.82094326    0.0025223844
      3917.22      0.82458359    0.0025171568
      3921.13      0.82908580    0.0025268379
      3925.06      0.83303631    0.0025195495
      3928.98      0.83711270    0.0025300162
      3932.91      0.84081504    0.0025224877
      3936.84      0.84434612    0.0025331073
      3940.78      0.84899420    0.0025439666
      3944.72      0.85273562    0.0025201433
      3948.67      0.85670998    0.0025313810
      3952.61      0.86206603    0.0025238003
      3956.57      0.86633839    0.0025347863
      3960.52      0.86849208    0.0025465012
      3964.48      0.87277578    0.0025389840
      3968.45      0.87797895    0.0025506300
      3972.42      0.88179925    0.0025438075
      3976.39      0.88153163    0.0025553704
      3980.37      0.88211357    0.0025505135
      3984.35      0.88115125    0.0025427851
      3988.33      0.87970991    0.0025547179
      3992.32      0.87792903    0.0025476627
      3996.31      0.87562035    0.0025603798
      4000.31      0.87511305    0.0025729656
      4004.31      0.87488766    0.0025659142
      4008.31      0.87403457    0.0025793851
      4012.32      0.86899157    0.0025719860
      4016.33      0.86579052    0.0025855600
      4020.35      0.86256823    0.0025788759
      4024.37      0.86012526    0.0025924870
      4028.40      0.85791703    0.0026068377
      4032.42      0.85698691    0.0025801527
      4036.46      0.85810989    0.0025939686
      4040.50      0.85930851    0.0025868620
      4044.54      0.86091955    0.0026023551
      4048.58      0.86362779    0.0025948184
      4052.63      0.86636242    0.0026096171
      4056.68      0.86963045    0.0026027390
      4060.74      0.87429423    0.0026186273
      4064.80      0.87892917    0.0026342132
      4068.86      0.88351957    0.0026272155
      4072.93      0.89005304    0.0026444745
      4077.01      0.89505577    0.0026369815
      4081.08      0.89860580    0.0026536661
      4085.17      0.90430672    0.0026468482
      4089.25      0.91031423    0.0026648525
      4093.34      0.91481827    0.0026574600
      4097.43      0.91784965    0.0026504291
      4101.53      0.92293493    0.0026455053
      4105.63      0.92731161    0.0026379476
      4109.74      0.93208678    0.0026307391
      4113.85      0.93544955    0.0026238709
      4117.96      0.93929548    0.0026190167
      4122.08      0.94248422    0.0026116389
      4126.20      0.94526328    0.0026045970
      4130.33      0.94676240    0.0025978868
      4134.46      0.94942634    0.0025931957
      4138.59      0.95224186    0.0025859627
      4142.73      0.95340347    0.0025790279
      4146.88      0.95780407    0.0025496145
      4151.02      0.96309597    0.0025432769
      4155.18      0.97007855    0.0025608304
      4159.33      0.97573185    0.0025539600
      4163.49      0.98255713    0.0025247690
      4167.65      0.99091440    0.0025184532
      4171.82       1.0020958    0.0025123520
      4175.99       1.0109499    0.0025065130
      4180.17       1.0193331    0.0025004713
      4184.35       1.0271875    0.0024941433
      4188.54       1.0344254    0.0024880400
      4192.72       1.0429085    0.0024821521
      4196.92       1.0492234    0.0024764589
      4201.11       1.0553417    0.0024705267
      4205.31       1.0617730    0.0024643751
      4209.52       1.0655376    0.0024583957
      4213.73       1.0711229    0.0024526033
      4217.94       1.0746870    0.0024257060
      4222.16       1.0779477    0.0024195309
      4226.38       1.0817786    0.0024135151
      4230.61       1.0867836    0.0024293457
      4234.84       1.0907507    0.0024235971
      4239.08       1.0935187    0.0023974526
      4243.32       1.0977167    0.0023913666
      4247.56       1.1024998    0.0023854420
      4251.81       1.1082170    0.0023796812
      4256.06       1.1122112    0.0023740005
      4260.32       1.1151285    0.0023702575
      4264.58       1.1196138    0.0023642567
      4268.84       1.1234607    0.0023583729
      4273.11       1.1281457    0.0023526167
      4277.38       1.1330464    0.0023469768
      4281.66       1.1381114    0.0023414052
      4285.94       1.1420378    0.0023159720
      4290.23       1.1439297    0.0023106660
      4294.52       1.1460934    0.0023265464
      4298.81       1.1464415    0.0023209142
      4303.11       1.1475070    0.0023153938
      4307.42       1.1462513    0.0023099738
      4311.72       1.1452896    0.0022848966
      4316.04       1.1444500    0.0022796892
      4320.35       1.1423178    0.0022745476
      4324.67       1.1402825    0.0022695000
      4329.00       1.1383586    0.0022645073
      4333.33       1.1388061    0.0022595805
      4337.66       1.1372937    0.0022547109
      4342.00       1.1373155    0.0022499003
      4346.34       1.1379817    0.0022447978
      4350.69       1.1398864    0.0022397525
      4355.04       1.1441763    0.0022347760
      4359.39       1.1489171    0.0022298675
      4363.75       1.1535773    0.0022250293
      4368.12       1.1593530    0.0022202182
      4372.48       1.1666503    0.0022154993
      4376.86       1.1739009    0.0022108012
      4381.23       1.1801485    0.0021879239
      4385.61       1.1856085    0.0021831581
      4390.00       1.1906299    0.0021783332
      4394.39       1.1953135    0.0021736117
      4398.79       1.2020961    0.0021689363
      4403.18       1.2075342    0.0021642675
      4407.59       1.2136042    0.0021596626
      4412.00       1.2205791    0.0021551152
      4416.41       1.2295128    0.0021506191
      4420.82       1.2382353    0.0021461650
      4425.25       1.2496722    0.0021417495
      4429.67       1.2611797    0.0021373671
      4434.10       1.2724657    0.0021152804
      4438.54       1.2842079    0.0021109881
      4442.97       1.2945978    0.0021067159
      4447.42       1.3078584    0.0021024704
      4451.86       1.3204129    0.0020982491
      4456.32       1.3320451    0.0020940477
      4460.77       1.3438668    0.0020898687
      4465.24       1.3535115    0.0020857149
      4469.70       1.3635315    0.0020815902
      4474.17       1.3719963    0.0020774911
      4478.65       1.3791318    0.0020734237
      4483.12       1.3869483    0.0020693908
      4487.61       1.3928833    0.0020654017
      4492.09       1.3994112    0.0020614097
      4496.59       1.4061283    0.0020574414
      4501.08       1.4128497    0.0020535000
      4505.58       1.4198748    0.0020495785
      4510.09       1.4276428    0.0020456809
      4514.60       1.4331133    0.0020418061
      4519.12       1.4388398    0.0020379357
      4523.63       1.4441712    0.0020341090
      4528.16       1.4482258    0.0020303144
      4532.69       1.4519871    0.0020265519
      4537.22       1.4528128    0.0020228220
      4541.76       1.4541876    0.0020191155
      4546.30       1.4544262    0.0020154344
      4550.85       1.4536924    0.0020117780
      4555.40       1.4519656    0.0019915411
      4559.95       1.4478340    0.0019879764
      4564.51       1.4440968    0.0019844760
      4569.08       1.4418385    0.0019809070
      4573.65       1.4402003    0.0019774179
      4578.22       1.4389505    0.0019739583
      4582.80       1.4377567    0.0019705362
      4587.38       1.4359764    0.0019671514
      4591.97       1.4349590    0.0019638129
      4596.56       1.4338969    0.0019605227
      4601.16       1.4316519    0.0019572861
      4605.76       1.4311135    0.0019379028
      4610.37       1.4271649    0.0019345628
      4614.98       1.4224818    0.0019312576
      4619.59       1.4155185    0.0019279929
      4624.21       1.4065255    0.0019247721
      4628.84       1.3961611    0.0019215632
      4633.47       1.3833025    0.0019184173
      4638.10       1.3696116    0.0019153320
      4642.74       1.3538967    0.0019123055
      4647.38       1.3362646    0.0019095067
      4652.03       1.3200324    0.0019063187
      4656.68       1.3042422    0.0019031812
      4661.34       1.2884259    0.0019000954
      4666.00       1.2722375    0.0018970585
      4670.67       1.2579944    0.0018940741
      4675.33       1.2439202    0.0018911467
      4680.01       1.2318415    0.0018732424
      4684.69       1.2196794    0.0018704599
      4689.38       1.2109482    0.0018677408
      4694.07       1.2038810    0.0018650896
      4698.76       1.1982554    0.0018768340
      4703.46       1.1933162    0.0018739566
      4708.16       1.1891826    0.0018562755
      4712.87       1.1845574    0.0018535926
      4717.58       1.1803380    0.0018509969
      4722.30       1.1744464    0.0018484628
      4727.03       1.1695619    0.0018460155
      4731.75       1.1627425    0.0018284809
      4736.48       1.1552361    0.0018258615
      4741.22       1.1478091    0.0018377318
      4745.96       1.1393398    0.0018352289
      4750.71       1.1321418    0.0018328313
      4755.46       1.1260441    0.0018158867
      4760.22       1.1218242    0.0018132970
      4764.97       1.1182187    0.0018108062
      4769.74       1.1159101    0.0018084121
      4774.51       1.1156304    0.0018204675
      4779.29       1.1187861    0.0018039023
      4784.07       1.1211162    0.0018013671
      4788.85       1.1248015    0.0017989377
      4793.64       1.1285960    0.0017966144
      4798.43       1.1340810    0.0017806087
      4803.23       1.1403021    0.0017923026
      4808.03       1.1449357    0.0017898435
      4812.84       1.1482949    0.0017875098
      4817.66       1.1527026    0.0017716162
      4822.48       1.1568124    0.0017695678
      4827.30       1.1600976    0.0017811987
      4832.12       1.1633772    0.0017789088
      4836.96       1.1672595    0.0017631150
      4841.79       1.1714462    0.0017611081
      4846.63       1.1748013    0.0017592419
      4851.48       1.1776050    0.0017706382
      4856.33       1.1797599    0.0017549394
      4861.19       1.1826108    0.0017530035
      4866.05       1.1848522    0.0017512035
      4870.92       1.1863915    0.0017495717
      4875.79       1.1871053    0.0017471302
      4880.66       1.1886973    0.0017452786
      4885.55       1.1894951    0.0017435948
      4890.43       1.1903968    0.0017282495
      4895.32       1.1903386    0.0017397002
      4900.22       1.1905331    0.0017379530
      4905.12       1.1921694    0.0017229984
      4910.02       1.1949678    0.0017210324
      4914.94       1.1989524    0.0017192453
      4919.85       1.2036846    0.0017309594
      4924.77       1.2099427    0.0017159373
      4929.70       1.2171245    0.0017141170
      4934.62       1.2243888    0.0017257659
      4939.56       1.2316393    0.0017110577
      4944.50       1.2390094    0.0017092292
      4949.44       1.2454918    0.0017076178
      4954.39       1.2542722    0.0017063712
      4959.35       1.2613219    0.0017045570
      4964.31       1.2686889    0.0017029386
      4969.27       1.2755062    0.0016889355
      4974.24       1.2812650    0.0017000214
      4979.22       1.2863086    0.0016858440
      4984.20       1.2899724    0.0016845020
      4989.18       1.2940042    0.0016956661
      4994.17       1.2990894    0.0016816092
      4999.16       1.3041714    0.0016803284
      5004.16       1.3087326    0.0016915066
      5009.17       1.3135864    0.0016775390
      5014.18       1.3197083    0.0016763230
      5019.19       1.3261081    0.0016624602
      5024.21       1.3332754    0.0016735970
      5029.23       1.3404544    0.0016724643
      5034.26       1.3492702    0.0016586149
      5039.30       1.3578510    0.0016698380
      5044.34       1.3661529    0.0016688186
      5049.39       1.3761303    0.0016549227
      5054.43       1.3836930    0.0016662535
      5059.49       1.3924846    0.0016527303
      5064.55       1.4019538    0.0016514384
      5069.61       1.4111087    0.0016507318
      5074.68       1.4205292    0.0016493103
      5079.76       1.4296422    0.0016606231
      5084.84       1.4392330    0.0016473212
      5089.92       1.4486394    0.0016460357
      5095.01       1.4576442    0.0016454664
      5100.11       1.4664387    0.0016440724
      5105.21       1.4738204    0.0016312648
      5110.31       1.4821852    0.0016422604
      5115.42       1.4906776    0.0016410917
      5120.54       1.4998758    0.0016285550
      5125.66       1.5076675    0.0016392979
      5130.79       1.5160871    0.0016266717
      5135.92       1.5240167    0.0016376034
      5141.05       1.5319186    0.0016248945
      5146.20       1.5386832    0.0016242444
      5151.34       1.5444276    0.0016232187
      5156.49       1.5521241    0.0016224937
      5161.65       1.5587075    0.0016216036
      5166.81       1.5651156    0.0016208238
      5171.98       1.5717049    0.0016200885
      5177.15       1.5776748    0.0016192652
      5182.33       1.5824266    0.0016068374
      5187.51       1.5873113    0.0016178340
      5192.70       1.5921496    0.0016055027
      5197.89       1.5961931    0.0016164406
      5203.09       1.5982970    0.0016041846
      5208.29       1.6009737    0.0016150846
      5213.50       1.6032475    0.0016029254
      5218.72       1.6048884    0.0016020137
      5223.93       1.6053503    0.0016017659
      5229.16       1.6060962    0.0016008587
      5234.39       1.6084411    0.0016006358
      5239.62       1.6094610    0.0015997359
      5244.86       1.6103535    0.0015995281
      5250.11       1.6113152    0.0015986458
      5255.36       1.6120065    0.0015984798
      5260.61       1.6119191    0.0015976196
      5265.87       1.6130004    0.0015974443
      5271.14       1.6122980    0.0015855885
      5276.41       1.6122548    0.0015964250
      5281.69       1.6112209    0.0015846582
      5286.97       1.6098207    0.0015954860
      5292.26       1.6075863    0.0015838016
      5297.55       1.6051063    0.0015946049
      5302.85       1.6022606    0.0015830265
      5308.15       1.5996444    0.0015827813
      5313.46       1.5966709    0.0015822880
      5318.77       1.5928622    0.0015819795
      5324.09       1.5896346    0.0015816163
      5329.42       1.5861646    0.0015812791
      5334.75       1.5836753    0.0015810555
      5340.08       1.5807537    0.0015806487
      5345.42       1.5783087    0.0015692947
      5350.77       1.5749470    0.0015800962
      5356.12       1.5701634    0.0015686594
      5361.48       1.5655068    0.0015796280
      5366.83       1.5610128    0.0015680920
      5372.20       1.5553023    0.0015681394
      5377.58       1.5497644    0.0015676020
      5382.95       1.5428480    0.0015675311
      5388.34       1.5349170    0.0015677445
      5393.72       1.5272123    0.0015670190
      5399.12       1.5200612    0.0015671276
      5404.52       1.5113923    0.0015561286
      5409.92       1.5029435    0.0015666108
      5415.33       1.4935329    0.0015558586
      5420.75       1.4831666    0.0015662346
      5426.17       1.4725147    0.0015663463
      5431.60       1.4611255    0.0015554728
      5437.03       1.4499870    0.0015659369
      5442.47       1.4382946    0.0015553076
      5447.91       1.4272101    0.0015551960
      5453.36       1.4162888    0.0015657589
      5458.81       1.4043102    0.0015551262
      5464.27       1.3940413    0.0015550584
      5469.73       1.3842710    0.0015443547
      5475.20       1.3747560    0.0015549777
      5480.68       1.3654332    0.0015549629
      5486.16       1.3573054    0.0015442872
      5491.65       1.3488250    0.0015549114
      5497.14       1.3402616    0.0015548958
      5502.64       1.3322975    0.0015442380
      5508.14       1.3247239    0.0015548970
      5513.65       1.3176040    0.0015549070
      5519.16       1.3106206    0.0015442365
      5524.68       1.3031486    0.0015445808
      5530.20       1.2948847    0.0015441689
      5535.73       1.2868105    0.0015443437
      5541.27       1.2786157    0.0015446411
      5546.81       1.2720152    0.0015342738
      5552.36       1.2653137    0.0015444564
      5557.91       1.2579497    0.0015447271
      5563.47       1.2492660    0.0015345139
      5569.04       1.2412325    0.0015346173
      5574.60       1.2342319    0.0015448980
      5580.18       1.2267499    0.0015452475
      5585.76       1.2191482    0.0015349189
      5591.35       1.2125841    0.0015350823
      5596.94       1.2045581    0.0015454030
      5602.53       1.1975797    0.0015353029
      5608.14       1.1916574    0.0015353867
      5613.75       1.1848752    0.0015355722
      5619.36       1.1779048    0.0015254285
      5624.98       1.1722491    0.0015358005
      5630.60       1.1636575    0.0015358983
      5636.23       1.1559852    0.0015360958
      5641.87       1.1492897    0.0015259522
      5647.51       1.1433696    0.0015263213
      5653.16       1.1394769    0.0015364963
      5658.82       1.1335284    0.0015366967
      5664.47       1.1279811    0.0015265055
      5670.14       1.1238798    0.0015268453
      5675.81       1.1209613    0.0015272400
      5681.48       1.1206995    0.0015373529
      5687.17       1.1198845    0.0015271350
      5692.85       1.1193807    0.0015274356
      5698.55       1.1208643    0.0015277720
      5704.25       1.1232672    0.0015281470
