# starting wavelength =        3711.8400
# ending wavelength =        7523.9600
# O2 telluric scale =        0
# O2 telluric shift =        0
# H2O telluric scale =        0
# H2O telluric shift =        0
      3715.10      0.35715176    0.0079516178
      3718.81      0.35526562    0.0067678472
      3722.53      0.35263981    0.0056575429
      3726.26      0.34972562    0.0049553767
      3729.98      0.34672005    0.0044030098
      3733.71      0.34311684    0.0040571946
      3737.45      0.33931685    0.0037065507
      3741.18      0.33658682    0.0034359237
      3744.93      0.33266378    0.0032269332
      3748.67      0.32873239    0.0030350095
      3752.42      0.32637813    0.0029138730
      3756.17      0.32362482    0.0028181308
      3759.93      0.32118386    0.0027409408
      3763.69      0.31891670    0.0026739772
      3767.45      0.31872650    0.0026186799
      3771.22      0.31745032    0.0025567242
      3774.99      0.31736404    0.0025184377
      3778.77      0.31832375    0.0024857765
      3782.54      0.31885488    0.0024670824
      3786.33      0.31960411    0.0024752600
      3790.11      0.32043576    0.0024711268
      3793.90      0.32123153    0.0024648428
      3797.70      0.32374349    0.0024733061
      3801.50      0.32850011    0.0024819391
      3805.30      0.33310206    0.0024628612
      3809.10      0.33898275    0.0024715459
      3812.91      0.34526049    0.0024802430
      3816.73      0.35256111    0.0024745786
      3820.54      0.36126376    0.0024698638
      3824.36      0.36951394    0.0024790997
      3828.19      0.37867167    0.0024729622
      3832.02      0.38853712    0.0024822063
      3835.85      0.39926612    0.0024776780
      3839.68      0.40867282    0.0024718270
      3843.52      0.41941475    0.0024812429
      3847.37      0.42942592    0.0024906735
      3851.22      0.44033381    0.0024850643
      3855.07      0.45051564    0.0024803480
      3858.92      0.46079600    0.0024904724
      3862.78      0.47191264    0.0024843026
      3866.64      0.48196105    0.0024942240
      3870.51      0.49261390    0.0025045150
      3874.38      0.50021954    0.0024838959
      3878.26      0.50656999    0.0024943449
      3882.13      0.51348593    0.0024882653
      3886.02      0.51979549    0.0024986455
      3889.90      0.52666662    0.0025093073
      3893.79      0.53160928    0.0024883018
      3897.69      0.53648753    0.0024991733
      3901.59      0.54343702    0.0025096704
      3905.49      0.54616500    0.0025039557
      3909.39      0.55105627    0.0025151037
      3913.30      0.55607641    0.0025092227
      3917.22      0.56127894    0.0025050658
      3921.13      0.56632742    0.0025160010
      3925.06      0.56958534    0.0025103038
      3928.98      0.57541822    0.0025220398
      3932.91      0.58021104    0.0025160955
      3936.84      0.58336616    0.0025279902
      3940.78      0.58800434    0.0025401300
      3944.72      0.59118602    0.0025176384
      3948.67      0.59461407    0.0025301573
      3952.61      0.59910612    0.0025241284
      3956.57      0.60427620    0.0025364058
      3960.52      0.60793330    0.0025494217
      3964.48      0.61197280    0.0025434447
      3968.45      0.61607382    0.0025564026
      3972.42      0.61918404    0.0025511109
      3976.39      0.62162937    0.0025639955
      3980.37      0.62288435    0.0025601516
      3984.35      0.62152086    0.0025539312
      3988.33      0.62095869    0.0025671976
      3992.32      0.62106230    0.0025616416
      3996.31      0.62183848    0.0025757070
      4000.31      0.62009096    0.0025896497
      4004.31      0.61901886    0.0025840871
      4008.31      0.61621531    0.0025989327
      4012.32      0.61274758    0.0025930090
      4016.33      0.60934221    0.0026079711
      4020.35      0.60573237    0.0026027520
      4024.37      0.60362771    0.0026177696
      4028.40      0.60133231    0.0026335369
      4032.42      0.59709043    0.0026078458
      4036.46      0.59338869    0.0026230765
      4040.50      0.59260254    0.0026174046
      4044.54      0.59094445    0.0026343439
      4048.58      0.58918660    0.0026282252
      4052.63      0.58865049    0.0026444756
      4056.68      0.58815784    0.0026390132
      4060.74      0.58706431    0.0026563800
      4064.80      0.58669889    0.0026734525
      4068.86      0.58883777    0.0026678589
      4072.93      0.58815930    0.0026866514
      4077.01      0.58919603    0.0026805371
      4081.08      0.58932351    0.0026987518
      4085.17      0.59167914    0.0026933220
      4089.25      0.59116524    0.0027128938
      4093.34      0.59159394    0.0027068658
      4097.43      0.59348253    0.0027011922
      4101.53      0.59584071    0.0026971601
      4105.63      0.59863698    0.0026909301
      4109.74      0.60175897    0.0026850400
      4113.85      0.60423956    0.0026794824
      4117.96      0.60664641    0.0026754892
      4122.08      0.61103310    0.0026693922
      4126.20      0.61507482    0.0026636204
      4130.33      0.61660741    0.0026581737
      4134.46      0.62033960    0.0026543175
      4138.59      0.62218703    0.0026483171
      4142.73      0.62279216    0.0026426078
      4146.88      0.62538032    0.0026136138
      4151.02      0.62807148    0.0026084802
      4155.18      0.63187350    0.0026276204
      4159.33      0.63427592    0.0026219281
      4163.49      0.63702584    0.0025930755
      4167.65      0.64004890    0.0025879163
      4171.82      0.64286135    0.0025829604
      4175.99      0.64920475    0.0025782710
      4180.17      0.65331947    0.0025729229
      4184.35      0.65849509    0.0025677009
      4188.54      0.66270571    0.0025627028
      4192.72      0.66680342    0.0025579124
      4196.92      0.67221801    0.0025533078
      4201.11      0.67698948    0.0025480278
      4205.31      0.68125440    0.0025429304
      4209.52      0.68536157    0.0025379976
      4213.73      0.68956237    0.0025332451
      4217.94      0.69185723    0.0025064717
      4222.16      0.69375867    0.0025012868
      4226.38      0.69798518    0.0024962598
      4230.61      0.70036528    0.0025136261
      4234.84      0.70411706    0.0025088577
      4239.08      0.70727842    0.0024827634
      4243.32      0.70918358    0.0024776190
      4247.56      0.71085216    0.0024726257
      4251.81      0.71612746    0.0024677852
      4256.06      0.72292372    0.0024630191
      4260.32      0.72875780    0.0024598905
      4264.58      0.73484413    0.0024547610
      4268.84      0.74096435    0.0024497528
      4273.11      0.74699190    0.0024448606
      4277.38      0.75421727    0.0024400802
      4281.66      0.76052928    0.0024353578
      4285.94      0.76792018    0.0024097810
      4290.23      0.77535982    0.0024053032
      4294.52      0.78005127    0.0024227025
      4298.81      0.78356969    0.0024178715
      4303.11      0.78695734    0.0024131451
      4307.42      0.78948138    0.0024085105
      4311.72      0.78979103    0.0023831947
      4316.04      0.79046333    0.0023787516
      4320.35      0.78923570    0.0023743732
      4324.67      0.78920169    0.0023700647
      4329.00      0.78809905    0.0023658093
      4333.33      0.79111163    0.0023616121
      4337.66      0.79237987    0.0023574625
      4342.00      0.79275672    0.0023533629
      4346.34      0.79532345    0.0023486400
      4350.69      0.79894008    0.0023442749
      4355.04      0.80313888    0.0023399702
      4359.39      0.81026372    0.0023357249
      4363.75      0.81946171    0.0023315418
      4368.12      0.82812136    0.0023273754
      4372.48      0.83655443    0.0023232937
      4376.86      0.84460669    0.0023192248
      4381.23      0.85291857    0.0022959247
      4385.61      0.86095146    0.0022916962
      4390.00      0.86928510    0.0022875095
      4394.39      0.87866080    0.0022833634
      4398.79      0.88843407    0.0022792547
      4403.18      0.89878625    0.0022751407
      4407.59      0.91169687    0.0022710836
      4412.00      0.92196376    0.0022670751
      4416.41      0.93416074    0.0022631099
      4420.82      0.94673642    0.0022591772
      4425.25      0.95914299    0.0022552739
      4429.67      0.97288503    0.0022513947
      4434.10      0.98892562    0.0022287296
      4438.54       1.0055754    0.0022249193
      4442.97       1.0215742    0.0022211227
      4447.42       1.0373507    0.0022173367
      4451.86       1.0520380    0.0022135685
      4456.32       1.0672894    0.0022098114
      4460.77       1.0818700    0.0022060660
      4465.24       1.0972723    0.0022023371
      4469.70       1.1112676    0.0021986273
      4474.17       1.1258289    0.0021949356
      4478.65       1.1412850    0.0021912655
      4483.12       1.1527345    0.0021876220
      4487.61       1.1663876    0.0021840140
      4492.09       1.1799528    0.0021803922
      4496.59       1.1919549    0.0021767862
      4501.08       1.2032558    0.0021731973
      4505.58       1.2148533    0.0021696194
      4510.09       1.2239924    0.0021660563
      4514.60       1.2350916    0.0021625072
      4519.12       1.2474934    0.0021589522
      4523.63       1.2561726    0.0021554327
      4528.16       1.2635622    0.0021519381
      4532.69       1.2697435    0.0021484671
      4537.22       1.2775198    0.0021450203
      4541.76       1.2844119    0.0021415884
      4546.30       1.2916585    0.0021381732
      4550.85       1.2983005    0.0021347747
      4555.40       1.3012792    0.0021138438
      4559.95       1.3034515    0.0021105174
      4564.51       1.3057656    0.0021071984
      4569.08       1.3056190    0.0021038987
      4573.65       1.3085608    0.0021006224
      4578.22       1.3087720    0.0020973694
      4582.80       1.3078809    0.0020941447
      4587.38       1.3061031    0.0020909528
      4591.97       1.3034805    0.0020877977
      4596.56       1.2999691    0.0020846854
      4601.16       1.2978129    0.0020816208
      4605.76       1.2910967    0.0020614299
      4610.37       1.2822571    0.0020582323
      4614.98       1.2746873    0.0020550622
      4619.59       1.2653378    0.0020519260
      4624.21       1.2546852    0.0020488276
      4628.84       1.2432686    0.0020457327
      4633.47       1.2309939    0.0020426955
      4638.10       1.2179802    0.0020397138
      4642.74       1.2030544    0.0020367863
      4647.38       1.1876074    0.0020341891
      4652.03       1.1740751    0.0020310632
      4656.68       1.1613242    0.0020279822
      4661.34       1.1477007    0.0020249394
      4666.00       1.1327942    0.0020219725
      4670.67       1.1194876    0.0020190338
      4675.33       1.1065494    0.0020161469
      4680.01       1.0912772    0.0019973179
      4684.69       1.0780335    0.0019945648
      4689.38       1.0648576    0.0019918713
      4694.07       1.0526273    0.0019892417
      4698.76       1.0419450    0.0020019915
      4703.46       1.0344274    0.0019991039
      4708.16       1.0259240    0.0019804406
      4712.87       1.0185198    0.0019777407
      4717.58       1.0115151    0.0019751262
      4722.30       1.0053418    0.0019725714
      4727.03      0.99888154    0.0019700971
      4731.75      0.99374147    0.0019515336
      4736.48      0.98849052    0.0019488350
      4741.22      0.98584274    0.0019616633
      4745.96      0.98243470    0.0019590973
      4750.71      0.97909190    0.0019566351
      4755.46      0.97713948    0.0019386472
      4760.22      0.97570177    0.0019359629
      4764.97      0.97569465    0.0019333763
      4769.74      0.97587924    0.0019308857
      4774.51      0.97849423    0.0019438265
      4779.29      0.98229893    0.0019261933
      4784.07      0.98797095    0.0019235269
      4788.85      0.99331425    0.0019209658
      4793.64       1.0009354    0.0019185100
      4798.43       1.0064484    0.0019014379
      4803.23       1.0115362    0.0019139364
      4808.03       1.0140194    0.0019113134
      4812.84       1.0159604    0.0019088153
      4817.66       1.0152437    0.0018918277
      4822.48       1.0145225    0.0018896192
      4827.30       1.0119479    0.0019020077
      4832.12       1.0105879    0.0018995215
      4836.96       1.0092426    0.0018826083
      4841.79       1.0087475    0.0018804146
      4846.63       1.0093879    0.0018783645
      4851.48       1.0111043    0.0018904581
      4856.33       1.0161183    0.0018736100
      4861.19       1.0212701    0.0018714635
      4866.05       1.0272733    0.0018694547
      4870.92       1.0338161    0.0018676187
      4875.79       1.0419453    0.0018648807
      4880.66       1.0491423    0.0018627933
      4885.55       1.0556777    0.0018608802
      4890.43       1.0625912    0.0018443600
      4895.32       1.0678369    0.0018564307
      4900.22       1.0718651    0.0018544303
      4905.12       1.0736713    0.0018383055
      4910.02       1.0751869    0.0018360589
      4914.94       1.0768968    0.0018339975
      4919.85       1.0767858    0.0018463052
      4924.77       1.0787993    0.0018300839
      4929.70       1.0794047    0.0018279667
      4934.62       1.0806528    0.0018401783
      4939.56       1.0830273    0.0018242731
      4944.50       1.0838880    0.0018221290
      4949.44       1.0841917    0.0018202097
      4954.39       1.0832337    0.0018186041
      4959.35       1.0814950    0.0018164565
      4964.31       1.0793190    0.0018145123
      4969.27       1.0755006    0.0017993284
      4974.24       1.0721636    0.0018108707
      4979.22       1.0676615    0.0017954891
      4984.20       1.0659589    0.0017938170
      4989.18       1.0615615    0.0018054146
      4994.17       1.0602243    0.0017901487
      4999.16       1.0597772    0.0017885242
      5004.16       1.0616021    0.0018001112
      5009.17       1.0639114    0.0017849268
      5014.18       1.0680447    0.0017833549
      5019.19       1.0735879    0.0017682769
      5024.21       1.0791561    0.0017797871
      5029.23       1.0870763    0.0017782868
      5034.26       1.0941493    0.0017632120
      5039.30       1.0998802    0.0017747886
      5044.34       1.1070360    0.0017733931
      5049.39       1.1142273    0.0017582587
      5054.43       1.1211597    0.0017699234
      5059.49       1.1289447    0.0017551778
      5064.55       1.1368220    0.0017534800
      5069.61       1.1437716    0.0017522849
      5074.68       1.1498497    0.0017504333
      5079.76       1.1575402    0.0017620320
      5084.84       1.1648669    0.0017475133
      5089.92       1.1722923    0.0017457892
      5095.01       1.1799982    0.0017447069
      5100.11       1.1869094    0.0017428653
      5105.21       1.1928809    0.0017288897
      5110.31       1.1998540    0.0017400757
      5115.42       1.2054824    0.0017384602
      5120.54       1.2112496    0.0017247354
      5125.66       1.2188017    0.0017356625
      5130.79       1.2268470    0.0017218386
      5135.92       1.2353252    0.0017329491
      5141.05       1.2455595    0.0017190355
      5146.20       1.2563900    0.0017179462
      5151.34       1.2673956    0.0017163193
      5156.49       1.2792938    0.0017151435
      5161.65       1.2915091    0.0017136499
      5166.81       1.3028765    0.0017124080
      5171.98       1.3162448    0.0017110684
      5177.15       1.3300351    0.0017097728
      5182.33       1.3446123    0.0016961524
      5187.51       1.3588719    0.0017072553
      5192.70       1.3727628    0.0016937345
      5197.89       1.3839172    0.0017047609
      5203.09       1.3969260    0.0016913194
      5208.29       1.4078462    0.0017022899
      5213.50       1.4172387    0.0016889502
      5218.72       1.4270627    0.0016875390
      5223.93       1.4374488    0.0016866718
      5229.16       1.4459815    0.0016852591
      5234.39       1.4546639    0.0016844092
      5239.62       1.4620022    0.0016829991
      5244.86       1.4700569    0.0016821581
      5250.11       1.4758419    0.0016807587
      5255.36       1.4815969    0.0016799542
      5260.61       1.4875297    0.0016785754
      5265.87       1.4936016    0.0016777526
      5271.14       1.4991485    0.0016647419
      5276.41       1.5038785    0.0016755559
      5281.69       1.5080985    0.0016626410
      5286.97       1.5104849    0.0016734322
      5292.26       1.5122613    0.0016606067
      5297.55       1.5151388    0.0016713583
      5302.85       1.5184518    0.0016586471
      5308.15       1.5195434    0.0016577327
      5313.46       1.5203758    0.0016567155
      5318.77       1.5220482    0.0016557269
      5324.09       1.5252223    0.0016548452
      5329.42       1.5277514    0.0016538199
      5334.75       1.5328952    0.0016530817
      5340.08       1.5384376    0.0016519804
      5345.42       1.5454884    0.0016395230
      5350.77       1.5514332    0.0016502143
      5356.12       1.5585785    0.0016376742
      5361.48       1.5653955    0.0016485265
      5366.83       1.5720322    0.0016358893
      5372.20       1.5767467    0.0016352538
      5377.58       1.5815299    0.0016341784
      5382.95       1.5852786    0.0016334164
      5388.34       1.5891333    0.0016329482
      5393.72       1.5932483    0.0016316740
      5399.12       1.5971074    0.0016310931
      5404.52       1.6003484    0.0016190416
      5409.92       1.6015717    0.0016293387
      5415.33       1.6029016    0.0016175497
      5420.75       1.6031067    0.0016277263
      5426.17       1.6025910    0.0016271424
      5431.60       1.5989792    0.0016152375
      5437.03       1.5963392    0.0016254909
      5442.47       1.5913296    0.0016138916
      5447.91       1.5852160    0.0016130319
      5453.36       1.5780578    0.0016233711
      5458.81       1.5692772    0.0016117347
      5464.27       1.5602903    0.0016109640
      5469.73       1.5502898    0.0015992664
      5475.20       1.5397366    0.0016096527
      5480.68       1.5290552    0.0016089376
      5486.16       1.5194012    0.0015972801
      5491.65       1.5110776    0.0016076557
      5497.14       1.5014300    0.0016069386
      5502.64       1.4927634    0.0015953146
      5508.14       1.4851254    0.0016057119
      5513.65       1.4779221    0.0016050116
      5519.16       1.4712960    0.0015934023
      5524.68       1.4629278    0.0015930563
      5530.20       1.4543250    0.0015921118
      5535.73       1.4448721    0.0015915973
      5541.27       1.4366617    0.0015912113
      5546.81       1.4273634    0.0015799299
      5552.36       1.4179330    0.0015898077
      5557.91       1.4092133    0.0015893970
      5563.47       1.3986740    0.0015782872
      5569.04       1.3880497    0.0015777122
      5574.60       1.3759257    0.0015876788
      5580.18       1.3643741    0.0015873518
      5585.76       1.3509583    0.0015761465
      5591.35       1.3379897    0.0015756358
      5596.94       1.3241087    0.0015856322
      5602.53       1.3078437    0.0015746782
      5608.14       1.2919291    0.0015740895
      5613.75       1.2764323    0.0015736077
      5619.36       1.2606689    0.0015626303
      5624.98       1.2451467    0.0015726678
      5630.60       1.2283399    0.0015721045
      5636.23       1.2125687    0.0015716430
      5641.87       1.1971440    0.0015606897
      5647.51       1.1820024    0.0015604120
      5653.16       1.1690637    0.0015702392
      5658.82       1.1573910    0.0015697894
      5664.47       1.1471928    0.0015588124
      5670.14       1.1393543    0.0015585144
      5675.81       1.1331723    0.0015582750
      5681.48       1.1297693    0.0015680303
      5687.17       1.1271494    0.0015570517
      5692.85       1.1248161    0.0015567245
      5698.55       1.1252504    0.0015564370
      5704.25       1.1258254    0.0015561916
