# starting wavelength =        3891.8000
# ending wavelength =        8781.4900
# O2 telluric scale =        0
# O2 telluric shift =        0
# H2O telluric scale =        0
# H2O telluric shift =        0
      3893.79      0.39374219    0.0016586547
      3897.69      0.40007166    0.0014028051
      3901.59      0.40610406    0.0012019419
      3905.49      0.41211004    0.0010452943
      3909.39      0.41787091   0.00092303227
      3913.30      0.42342243   0.00082743137
      3917.22      0.42882192   0.00073502292
      3921.13      0.43402677   0.00068150597
      3925.06      0.43907159   0.00063984053
      3928.98      0.44389222   0.00060729608
      3932.91      0.44833970   0.00058154006
      3936.84      0.45268504   0.00056108667
      3940.78      0.45706580   0.00054441375
      3944.72      0.46135301   0.00053468228
      3948.67      0.46558362   0.00052252573
      3952.61      0.46996295   0.00051208796
      3956.57      0.47429314   0.00050303190
      3960.52      0.47852136   0.00049511213
      3964.48      0.48262412   0.00048816740
      3968.45      0.48646419   0.00048866792
      3972.42      0.48986686   0.00049255493
      3976.39      0.49323520   0.00049334179
      3980.37      0.49646055   0.00049777699
      3984.35      0.49922407   0.00049920470
      3988.33      0.50186580   0.00050100164
      3992.32      0.50396004   0.00050321855
      3996.31      0.50552674   0.00050589243
      4000.31      0.50702663   0.00050905992
      4004.31      0.50827835   0.00051510178
      4008.31      0.50932854   0.00051917820
      4012.32      0.51020660   0.00052864682
      4016.33      0.51080329   0.00053404648
      4020.35      0.51071399   0.00053998505
      4024.37      0.51044079   0.00054642521
      4028.40      0.50978623   0.00055333863
      4032.42      0.50879391   0.00056067004
      4036.46      0.50745408   0.00057666445
      4040.50      0.50577460   0.00058482666
      4044.54      0.50362742   0.00059319674
      4048.58      0.50104033   0.00060168258
      4052.63      0.49850781   0.00061022672
      4056.68      0.49574894   0.00061877471
      4060.74      0.49286144   0.00062729102
      4064.80      0.48935504   0.00064287529
      4068.86      0.48632873   0.00065161242
      4072.93      0.48354171   0.00066063134
      4077.01      0.48126947   0.00067259710
      4081.08      0.47917905   0.00068171011
      4085.17      0.47778335   0.00069871029
      4089.25      0.47667077   0.00070780366
      4093.34      0.47547970   0.00071687024
      4097.43      0.47454014   0.00072589463
      4101.53      0.47338444   0.00073489049
      4105.63      0.47207804   0.00074385470
      4109.74      0.47086274   0.00076124214
      4113.85      0.46983213   0.00077014204
      4117.96      0.46888140   0.00077899265
      4122.08      0.46773482   0.00079205443
      4126.20      0.46717429   0.00080974329
      4130.33      0.46655936   0.00081862850
      4134.46      0.46583479   0.00082748900
      4138.59      0.46476601   0.00083632791
      4142.73      0.46351028   0.00084512339
      4146.88      0.46214371   0.00086344959
      4151.02      0.46064910   0.00087226317
      4155.18      0.45884646   0.00088103762
      4159.33      0.45702400   0.00088978641
      4163.49      0.45452629   0.00090860971
      4167.65      0.45260188   0.00091725368
      4171.82      0.45077230   0.00092587864
      4175.99      0.44946684   0.00093445861
      4180.17      0.44839635   0.00094301827
      4184.35      0.44738540   0.00096812140
      4188.54      0.44718682   0.00097676521
      4192.72      0.44761165   0.00098539636
      4196.92      0.44880032   0.00099401705
      4201.11      0.45049470    0.0010139626
      4205.31      0.45262274    0.0010226105
      4209.52      0.45520557    0.0010312558
      4213.73      0.45800391    0.0010398658
      4217.94      0.46156690    0.0010599070
      4222.16      0.46506043    0.0010683791
      4226.38      0.46894774    0.0010768125
      4230.61      0.47314820    0.0010976689
      4234.84      0.47690890    0.0011061812
      4239.08      0.48065738    0.0011146740
      4243.32      0.48440347    0.0011231596
      4247.56      0.48849474    0.0011444555
      4251.81      0.49222986    0.0011527220
      4256.06      0.49538669    0.0011609971
      4260.32      0.49786787    0.0011828731
      4264.58      0.49987517    0.0011912195
      4268.84      0.50173042    0.0011995708
      4273.11      0.50345534    0.0012079210
      4277.38      0.50479507    0.0012304326
      4281.66      0.50634405    0.0012385425
      4285.94      0.50792290    0.0012466583
      4290.23      0.50947794    0.0012697082
      4294.52      0.51147146    0.0012779170
      4298.81      0.51364765    0.0012861557
      4303.11      0.51549903    0.0013101764
      4307.42      0.51735758    0.0013180895
      4311.72      0.51936007    0.0013260481
      4316.04      0.52129353    0.0013503033
      4320.35      0.52333800    0.0013584030
      4324.67      0.52550749    0.0013665387
      4329.00      0.52793350    0.0013919949
      4333.33      0.53075266    0.0013997370
      4337.66      0.53392152    0.0014075541
      4342.00      0.53768280    0.0014332009
      4346.34      0.54169829    0.0014412217
      4350.69      0.54517308    0.0014493145
      4355.04      0.54864599    0.0014761645
      4359.39      0.55216075    0.0014838115
      4363.75      0.55592743    0.0014915425
      4368.12      0.55975507    0.0015187685
      4372.48      0.56392192    0.0015267799
      4376.86      0.56819814    0.0015348483
      4381.23      0.57263636    0.0015629936
      4385.61      0.57736531    0.0015705934
      4390.00      0.58216798    0.0015782569
      4394.39      0.58709143    0.0015860676
      4398.79      0.59213567    0.0015789327
      4403.18      0.59784506    0.0016073450
      4407.59      0.60370874    0.0016146772
      4412.00      0.61011716    0.0016221868
      4416.41      0.61722220    0.0016298134
      4420.82      0.62485376    0.0016220054
      4425.25      0.63328995    0.0016505081
      4429.67      0.64264477    0.0016576309
      4434.10      0.65290047    0.0016649604
      4438.54      0.66437174    0.0016564483
      4442.97      0.67709492    0.0016640510
      4447.42      0.69097301    0.0016923799
      4451.86      0.70599269    0.0016994295
      4456.32      0.72200783    0.0016902458
      4460.77      0.73826957    0.0016976463
      4465.24      0.75462508    0.0017052042
      4469.70      0.77186352    0.0017331673
      4474.17      0.78929648    0.0017233517
      4478.65      0.80616062    0.0017305125
      4483.12      0.82299704    0.0017379334
      4487.61      0.83984460    0.0017490248
      4492.09      0.85601972    0.0017557584
      4496.59      0.87211558    0.0017627698
      4501.08      0.88788685    0.0017700718
      4505.58      0.90386661    0.0017587734
      4510.09      0.91957330    0.0017874788
      4514.60      0.93458756    0.0017943698
      4519.12      0.94921862    0.0018015288
      4523.63      0.96360994    0.0017896183
      4528.16      0.97712649    0.0018185132
      4532.69      0.98915096    0.0018253081
      4537.22      0.99981089    0.0018136549
      4541.76       1.0096965    0.0018196934
      4546.30       1.0190223    0.0018488689
      4550.85       1.0274848    0.0018373836
      4555.40       1.0360116    0.0018430799
      4559.95       1.0432307    0.0018491362
      4564.51       1.0492915    0.0018786078
      4569.08       1.0557466    0.0018661659
      4573.65       1.0617064    0.0018718966
      4578.22       1.0673251    0.0018779848
      4582.80       1.0733451    0.0018888974
      4587.38       1.0777520    0.0018942847
      4591.97       1.0811659    0.0019001084
      4596.56       1.0837119    0.0019112633
      4601.16       1.0838779    0.0019163820
      4605.76       1.0829020    0.0019218962
      4610.37       1.0803737    0.0019095636
      4614.98       1.0764336    0.0019380212
      4619.59       1.0704214    0.0019433050
      4624.21       1.0630958    0.0019305248
      4628.84       1.0539133    0.0019592813
      4633.47       1.0436379    0.0019643592
      4638.10       1.0311196    0.0019511598
      4642.74       1.0176936    0.0019800817
      4647.38       1.0037945    0.0019849696
      4652.03      0.98957086    0.0019713680
      4656.68      0.97622879    0.0019771686
      4661.34      0.96290350    0.0020051510
      4666.00      0.95002692    0.0019911778
      4670.67      0.93726911    0.0019969159
      4675.33      0.92326003    0.0020055246
      4680.01      0.91043579    0.0020106491
      4684.69      0.89855138    0.0020163347
      4689.38      0.88743119    0.0020246965
      4694.07      0.87929755    0.0020297843
      4698.76      0.87296660    0.0020354636
      4703.46      0.86871294    0.0020434557
      4708.16      0.86547611    0.0020485448
      4712.87      0.86404969    0.0020335471
      4717.58      0.86244912    0.0020618614
      4722.30      0.86147594    0.0020669864
      4727.03      0.86124704    0.0020513857
      4731.75      0.86070620    0.0020799181
      4736.48      0.86007587    0.0020851283
      4741.22      0.85938910    0.0020688546
      4745.96      0.85943298    0.0020976713
      4750.71      0.85829640    0.0020819491
      4755.46      0.85756015    0.0020860747
      4760.22      0.85626171    0.0021151611
      4764.97      0.85557139    0.0020986635
      4769.74      0.85488262    0.0021029703
      4774.51      0.85410735    0.0021113619
      4779.29      0.85433251    0.0021151310
      4784.07      0.85536004    0.0021241448
      4788.85      0.85727840    0.0021273860
      4793.64      0.85995432    0.0021314244
      4798.43      0.86414733    0.0021395989
      4803.23      0.86865878    0.0021431314
      4808.03      0.87371293    0.0021274669
      4812.84      0.87909648    0.0021548800
      4817.66      0.88354279    0.0021386125
      4822.48      0.88689625    0.0021666504
      4827.30      0.88999391    0.0021700723
      4832.12      0.89285990    0.0021540568
      4836.96      0.89527963    0.0021812932
      4841.79      0.89781335    0.0021647314
      4846.63      0.90085777    0.0021925229
      4851.48      0.90404314    0.0021754097
      4856.33      0.90658050    0.0021797843
      4861.19      0.90849886    0.0021860042
      4866.05      0.90876961    0.0021899943
      4870.92      0.90789736    0.0022173361
      4875.79      0.90527596    0.0022001282
      4880.66      0.90137205    0.0022278581
      4885.55      0.89565425    0.0022102259
      4890.43      0.88951225    0.0022145206
      4895.32      0.88143411    0.0022201779
      4900.22      0.87379516    0.0022242002
      4905.12      0.86462564    0.0022300146
      4910.02      0.85730928    0.0022337571
      4914.94      0.84955490    0.0022396780
      4919.85      0.84391737    0.0022432066
      4924.77      0.83990984    0.0022247584
      4929.70      0.83625344    0.0022525397
      4934.62      0.83547462    0.0022340643
      4939.56      0.83599615    0.0022616928
      4944.50      0.83826248    0.0022432527
      4949.44      0.84124172    0.0022707457
      4954.39      0.84368352    0.0022522149
      4959.35      0.84579802    0.0022796929
      4964.31      0.84522260    0.0022610407
      4969.27      0.84355924    0.0022636225
      4974.24      0.84035905    0.0022696479
      4979.22      0.83587285    0.0022720829
      4984.20      0.82901851    0.0022781014
      4989.18      0.82216032    0.0022804192
      4994.17      0.81362143    0.0022863282
      4999.16      0.80687200    0.0022886396
      5004.16      0.79959726    0.0022944131
      5009.17      0.79433876    0.0022966648
      5014.18      0.78933220    0.0023023099
      5019.19      0.78697063    0.0022834539
      5024.21      0.78585246    0.0023100263
      5029.23      0.78739914    0.0022910903
      5034.26      0.79092853    0.0023175994
      5039.30      0.79651593    0.0022985752
      5044.34      0.80374631    0.0023249829
      5049.39      0.81278246    0.0023059537
      5054.43      0.82287044    0.0023321941
      5059.49      0.83436202    0.0023132008
      5064.55      0.84700863    0.0023392770
      5069.61      0.85991193    0.0023203191
      5074.68      0.87282235    0.0023246596
      5079.76      0.88530116    0.0023273130
      5084.84      0.89804423    0.0023315526
      5089.92      0.91055397    0.0023342214
      5095.01      0.92331904    0.0023380305
      5100.11      0.93559603    0.0023410862
      5105.21      0.94773440    0.0023445584
      5110.31      0.95932506    0.0023247029
      5115.42      0.97061494    0.0023510350
      5120.54      0.98098464    0.0023550879
      5125.66      0.99106629    0.0023574192
      5130.79       1.0003092    0.0023610890
      5135.92       1.0099225    0.0023412214
      5141.05       1.0205539    0.0023670605
      5146.20       1.0323363    0.0023467869
      5151.34       1.0446411    0.0023730415
      5156.49       1.0583529    0.0023523080
      5161.65       1.0727013    0.0023567533
      5166.81       1.0858438    0.0023577798
      5171.98       1.0989981    0.0023618104
      5177.15       1.1112842    0.0023878220
      5182.33       1.1229501    0.0023668899
      5187.51       1.1338610    0.0023712027
      5192.70       1.1431269    0.0023719588
      5197.89       1.1511358    0.0023758122
      5203.09       1.1577167    0.0023558998
      5208.29       1.1637291    0.0023804800
      5213.50       1.1679253    0.0023845450
      5218.72       1.1726888    0.0023642516
      5223.93       1.1768313    0.0023888050
      5229.16       1.1818440    0.0023687200
      5234.39       1.1867926    0.0023931031
      5239.62       1.1932374    0.0023967545
      5244.86       1.2011300    0.0023761438
      5250.11       1.2102488    0.0024007314
      5255.36       1.2205295    0.0023807568
      5260.61       1.2322990    0.0023833416
      5265.87       1.2437504    0.0024080531
      5271.14       1.2551511    0.0023876255
      5276.41       1.2659605    0.0023902312
      5281.69       1.2752267    0.0023921407
      5286.97       1.2836007    0.0023942066
      5292.26       1.2909608    0.0023968217
      5297.55       1.2975503    0.0023984797
      5302.85       1.3034542    0.0024005251
      5308.15       1.3080455    0.0024030719
      5313.46       1.3120904    0.0024045734
      5318.77       1.3152736    0.0024065303
      5324.09       1.3179958    0.0023853391
      5329.42       1.3200044    0.0023882373
      5334.75       1.3214048    0.0024122272
      5340.08       1.3229585    0.0023909107
      5345.42       1.3242089    0.0023936073
      5350.77       1.3257163    0.0024176701
      5356.12       1.3273012    0.0023961228
      5361.48       1.3290704    0.0023986790
      5366.83       1.3304305    0.0024228008
      5372.20       1.3305458    0.0024010650
      5377.58       1.3287661    0.0024033852
      5382.95       1.3257574    0.0024060563
      5388.34       1.3235279    0.0024056395
      5393.72       1.3205701    0.0024077352
      5399.12       1.3188132    0.0024101975
      5404.52       1.3194627    0.0023890654
      5409.92       1.3214158    0.0024118369
      5415.33       1.3256642    0.0024140226
      5420.75       1.3331366    0.0023931680
      5426.17       1.3418291    0.0024157207
      5431.60       1.3543900    0.0024176026
      5437.03       1.3681017    0.0024197995
      5442.47       1.3814229    0.0023983560
      5447.91       1.3945696    0.0024209597
      5453.36       1.4087141    0.0024228068
      5458.81       1.4192263    0.0024018368
      5464.27       1.4289935    0.0024029952
      5469.73       1.4349731    0.0024044714
      5475.20       1.4354031    0.0024052176
      5480.68       1.4315433    0.0024061087
      5486.16       1.4220140    0.0024071870
      5491.65       1.4070495    0.0024085280
      5497.14       1.3899595    0.0024091751
      5502.64       1.3680318    0.0024098893
      5508.14       1.3435722    0.0024108866
      5513.65       1.3177272    0.0024120687
      5519.16       1.2925279    0.0023908150
      5524.68       1.2670529    0.0024132646
      5530.20       1.2413821    0.0024140514
      5535.73       1.2176640    0.0023924223
      5541.27       1.1948157    0.0023935631
      5546.81       1.1755088    0.0023948891
      5552.36       1.1593357    0.0024168044
      5557.91       1.1474519    0.0023949404
      5563.47       1.1379150    0.0023958042
      5569.04       1.1311313    0.0023968758
      5574.60       1.1259810    0.0023980311
      5580.18       1.1211763    0.0024196123
      5585.76       1.1166585    0.0023976533
      5591.35       1.1119119    0.0023984022
      5596.94       1.1051465    0.0023992549
      5602.53       1.0964302    0.0024002537
      5608.14       1.0850495    0.0023787815
      5613.75       1.0725283    0.0023995393
      5619.36       1.0576633    0.0024001320
      5624.98       1.0408930    0.0024007752
      5630.60       1.0223028    0.0024015773
      5636.23       1.0034948    0.0023801398
      5641.87      0.98346685    0.0023803556
      5647.51      0.96402076    0.0023806667
      5653.16      0.94577376    0.0024014855
      5658.82      0.92751372    0.0024019833
      5664.47      0.91107431    0.0023809077
      5670.14      0.89570798    0.0023809076
      5675.81      0.88302423    0.0023809179
      5681.48      0.87357759    0.0023810737
      5687.17      0.86764223    0.0023812339
      5692.85      0.86454815    0.0023812095
      5698.55      0.86424090    0.0023809248
      5704.25      0.86609054    0.0023806861
      5709.95      0.86951772    0.0023805155
      5715.66      0.87363453    0.0023804067
      5721.38      0.87775104    0.0023803559
      5727.10      0.88151389    0.0023589806
      5732.83      0.88595888    0.0023589742
      5738.56      0.89025165    0.0023589765
      5744.30      0.89549896    0.0023793181
      5750.04      0.89966067    0.0023789080
      5755.79      0.90389857    0.0023785442
      5761.55      0.90962754    0.0023569811
      5767.31      0.91626927    0.0023566692
      5773.08      0.92559579    0.0023563609
      5778.85      0.93819921    0.0023560789
      5784.63      0.95408597    0.0023558223
      5790.41      0.97336695    0.0023555501
      5796.21      0.99606025    0.0023553081
      5802.00       1.0219005    0.0023550985
      5807.81       1.0482380    0.0023339744
      5813.61       1.0763593    0.0023337161
      5819.43       1.1042702    0.0023334404
      5825.25       1.1302028    0.0023523623
      5831.07       1.1543026    0.0023520224
      5836.90       1.1753687    0.0023519507
      5842.74       1.1928379    0.0023524509
      5848.58       1.2068056    0.0023536958
      5854.43       1.2178199    0.0023552880
      5860.29       1.2266527    0.0023364387
      5866.15       1.2330936    0.0023379237
      5872.01       1.2380057    0.0023397213
      5877.89       1.2418659    0.0023410582
      5883.76       1.2458270    0.0023414798
      5889.65       1.2490696    0.0023413635
      5895.54       1.2516957    0.0023409123
      5901.43       1.2546293    0.0023400525
      5907.34       1.2575672    0.0023387949
      5913.24       1.2606010    0.0023372291
      5919.16       1.2630005    0.0023357531
      5925.08       1.2651787    0.0023343962
      5931.00       1.2668321    0.0023329508
      5936.93       1.2674649    0.0023112594
      5942.87       1.2672146    0.0023092035
      5948.81       1.2654214    0.0023068501
      5954.76       1.2627743    0.0023044746
      5960.72       1.2590519    0.0023021259
      5966.68       1.2545423    0.0022994691
      5972.64       1.2487395    0.0022965089
      5978.62       1.2414013    0.0022938993
