# data from http://adsabs.harvard.edu/abs/1995A%26AS..110..513B
# via WISEREP
# de-redshifted assuming z= -0.000113000
# type is SNIIb
# phase is       150.200
# WARNING: fake error spectrum!

       4021.4500      0.66239025     0.097613936
       4022.4500      0.67371228     0.097593625
       4023.4500      0.68205108     0.097573317
       4024.4500      0.68607332     0.097553014
       4025.4500      0.68396409     0.097532714
       4026.4600      0.67393078     0.097512215
       4027.4600      0.65814504     0.097491923
       4028.4600      0.63954551     0.097471635
       4029.4600      0.62104409     0.097451350
       4030.4600      0.60553036     0.097431070
       4031.4600      0.59585379     0.097410793
       4032.4600      0.59483708     0.097390520
       4033.4600      0.60440217     0.097370251
       4034.4600      0.62309980     0.097349986
       4035.4600      0.64808052     0.097329724
       4036.4600      0.67649485     0.097309467
       4037.4600      0.70552456     0.097289213
       4038.4600      0.73237816     0.097268963
       4039.4600      0.75429091     0.097248717
       4040.4600      0.76845349     0.097228475
       4041.4600      0.77288598     0.097208236
       4042.4600      0.76990274     0.097188002
       4043.4600      0.76320941     0.097167771
       4044.4600      0.75645811     0.097147544
       4045.4600      0.75329204     0.097127321
       4046.4600      0.75730091     0.097107102
       4047.4600      0.77205210     0.097086886
       4048.4600      0.80309294     0.097066675
       4049.4600      0.85530628     0.097046467
       4050.4600      0.92190517     0.097026263
       4051.4600      0.99431892     0.097006063
       4052.4600       1.0640393     0.096985867
       4053.4600       1.1226606     0.096965674
       4054.4600       1.1618395     0.096945486
       4055.4600       1.1732730     0.096925301
       4056.4600       1.1497059     0.096905120
       4057.4600       1.0949419     0.096884943
       4058.4600       1.0194825     0.096864770
       4059.4600      0.93394960     0.096844600
       4060.4600      0.84884929     0.096824435
       4061.4600      0.77460725     0.096804273
       4062.4600      0.72154219     0.096784115
       4063.4600      0.69811775     0.096763961
       4064.4600      0.69870191     0.096743811
       4065.4600      0.71592353     0.096723664
       4066.4600      0.74569794     0.096703522
       4067.4600      0.78399397     0.096683383
       4068.4600      0.82681614     0.096663248
       4069.4600      0.87020909     0.096643117
       4070.4600      0.91027991     0.096622990
       4071.4600      0.95064949     0.096602866
       4072.4600      0.92396088     0.096582747
       4073.4600      0.88164261     0.096562631
       4074.4600      0.83308139     0.096542519
       4075.4600      0.78319577     0.096522411
       4076.4600      0.73686417     0.096502307
       4077.4600      0.69891150     0.096482206
       4078.4600      0.67367661     0.096462110
       4079.4600      0.65859988     0.096442017
       4080.4600      0.64948072     0.096421928
       4081.4600      0.64556996     0.096401843
       4082.4600      0.64592670     0.096381762
       4083.4600      0.65088092     0.096361685
       4084.4600      0.62386233     0.096341611
       4085.4600      0.56285535     0.096321542
       4086.4600      0.55109185     0.096301476
       4087.4600      0.58513821     0.096281414
       4088.4600      0.65312839     0.096261356
       4089.4600      0.74404356     0.096241301
       4090.4600      0.80704383     0.096221251
       4091.4600      0.83692972     0.096201204
       4092.4600      0.85905651     0.096181162
       4093.4600      0.86970966     0.096161123
       4094.4600      0.86513447     0.096141088
       4095.4600      0.84602659     0.096121056
       4096.4600      0.81722430     0.096101029
       4097.4600      0.78375763     0.096081005
       4098.4600      0.75064325     0.096060986
       4099.4600      0.72285321     0.096040970
       4100.4600      0.70534173     0.096020958
       4101.4600      0.70298725     0.096000949
       4102.4600      0.71817991     0.095980945
       4103.4600      0.74708031     0.095960944
       4104.4600      0.78425261     0.095940948
       4105.4600      0.82428775     0.095920955
       4106.4600      0.86180341     0.095900966
       4107.4600      0.89145742     0.095880981
       4108.4600      0.90792096     0.095861000
       4109.4600      0.90617740     0.095841022
       4110.4600      0.88596808     0.095821048
       4111.4600      0.85272884     0.095801079
       4112.4600      0.80885874     0.095781113
       4113.4600      0.76736989     0.095761151
       4114.4600      0.73079067     0.095741192
       4115.4700      0.70498945     0.095721039
       4116.4700      0.69574543     0.095701088
       4117.4700      0.70590806     0.095681141
       4118.4700      0.73168698     0.095661199
       4119.4700      0.76822607     0.095641260
       4120.4700      0.81074501     0.095621324
       4121.4700      0.85449470     0.095601393
       4122.4700      0.89475726     0.095581466
       4123.4700      0.92685940     0.095561542
       4124.4700      0.94670305     0.095541622
       4125.4700      0.95578654     0.095521706
       4126.4700      0.95762821     0.095501794
       4127.4700      0.95468957     0.095481886
       4128.4700      0.94937860     0.095461982
       4129.4700      0.94410777     0.095442081
       4130.4700      0.94126723     0.095422185
       4131.4700      0.94322930     0.095402292
       4132.4700      0.95171079     0.095382403
       4133.4700      0.96566378     0.095362518
       4134.4700      0.98318863     0.095342637
       4135.4700       1.0024526     0.095322759
       4136.4700      0.94338983     0.095302886
       4137.4700      0.85069096     0.095283016
       4138.4700      0.78237080     0.095263150
       4139.4700      0.75080378     0.095243288
       4140.4700      0.76225067     0.095223430
       4141.4700      0.79457577     0.095203575
       4142.4700      0.86448788     0.095183725
       4143.4700      0.94785800     0.095163878
       4144.4700       1.0107245     0.095144036
       4145.4700       1.0043210     0.095124197
       4146.4700       1.0029163     0.095104361
       4147.4700       1.0089140     0.095084530
       4148.4700       1.0243698     0.095064703
       4149.4700       1.0469693     0.095044879
       4150.4700       1.0731674     0.095025060
       4151.4700       1.0994457     0.095005244
       4152.4700       1.1222815     0.094985432
       4153.4700       1.1381921     0.094965624
       4154.4700       1.1436859     0.094945820
       4155.4700       1.1353159     0.094926019
       4156.4700       1.1132337     0.094906223
       4157.4700       1.0815953     0.094886430
       4158.4700       1.0448779     0.094866641
       4159.4700       1.0075138     0.094846856
       4160.4700      0.97393569     0.094827075
       4161.4700      0.94854472     0.094807298
       4162.4700      0.93564412     0.094787524
       4163.4700      0.93682582     0.094767754
       4164.4700      0.94894606     0.094747989
       4165.4700      0.96814312     0.094728227
       4166.4700      0.99058207     0.094708469
       4167.4700       1.0124502     0.094688715
       4168.4700       1.0299394     0.094668964
       4169.4700       1.0392771     0.094649218
       4170.4700       1.0370341     0.094629475
       4171.4700       1.0233486     0.094609736
       4172.4700       1.0015028     0.094590002
       4173.4700      0.97499253     0.094570271
       4174.4700      0.94728276     0.094550543
       4175.4700      0.92184720     0.094530820
       4176.4700      0.90211948     0.094511101
       4177.4700      0.89153768     0.094491385
       4178.4700      0.89239832     0.094471673
       4179.4700      0.90303809     0.094451965
       4180.4700      0.92037119     0.094432261
       4181.4700      0.94130736     0.094412561
       4182.4700      0.96277865     0.094392865
       4183.4700      0.98173046     0.094373172
       4184.4700      0.99511712     0.094353483
       4185.4700       1.0000000     0.094333799
       4186.4700      0.99556305     0.094314118
       4187.4700      0.98411615     0.094294441
       4188.4700      0.96833933     0.094274768
       4189.4700      0.95089475     0.094255098
       4190.4700      0.93444458     0.094235433
       4191.4700      0.92163316     0.094215771
       4192.4700      0.91508698     0.094196113
       4193.4700      0.91689297     0.094176459
       4194.4700      0.92609686     0.094156809
       4195.4700      0.94063848     0.094137163
       4196.4700      0.95857358     0.094117521
       4197.4700      0.95843534     0.094097882
       4198.4700      0.87898936     0.094078248
       4199.4700      0.81181969     0.094058617
       4200.4700      0.76411464     0.094038990
       4201.4700      0.73808154     0.094019367
       4202.4800      0.72774054     0.093999552
       4203.4800      0.72917642     0.093979937
       4204.4800      0.73887975     0.093960325
       4205.4800      0.75335893     0.093940718
       4206.4800      0.76914021     0.093921114
       4207.4800      0.78276322     0.093901514
       4208.4800      0.79126255     0.093881918
       4209.4800      0.79701052     0.093862326
       4210.4800      0.80267377     0.093842738
       4211.4800      0.80864470     0.093823153
       4212.4800      0.81528006     0.093803573
       4213.4800      0.82294105     0.093783996
       4214.4800      0.83198887     0.093764423
       4215.4800      0.84277133     0.093744854
       4216.4800      0.85469537     0.093725289
       4217.4800      0.86542432     0.093705728
       4218.4800      0.87587234     0.093686171
       4219.4800      0.88768043     0.093666617
       4220.4800      0.90247622     0.093647068
       4221.4800      0.92189179     0.093627522
       4222.4800      0.94754585     0.093607980
       4223.4800      0.98115967     0.093588442
       4224.4800       1.0273040     0.093568908
       4225.4800       1.0872185     0.093549378
       4226.4800       1.1558106     0.093529851
       4227.4800       1.2276625     0.093510329
       4228.4800       1.2497224     0.093490810
       4229.4800       1.2311942     0.093471295
       4230.4800       1.2163316     0.093451784
       4231.4800       1.2070608     0.093432277
       4232.4800       1.2029449     0.093412774
       4233.4800       1.2022849     0.093393275
       4234.4800       1.2035870     0.093373779
       4235.4800       1.2053618     0.093354287
       4236.4800       1.2061288     0.093334800
       4237.4800       1.2044120     0.093315316
       4238.4800       1.1987487     0.093295836
       4239.4800       1.1879841     0.093276360
       4240.4800       1.1726042     0.093256887
       4241.4800       1.1539823     0.093237419
       4242.4800       1.1335188     0.093217954
       4243.4800       1.1126094     0.093198494
       4244.4800       1.0926320     0.093179037
       4245.4800       1.0749689     0.093159584
       4246.4800       1.0608732     0.093140135
       4247.4800       1.0494174     0.093120689
       4248.4800       1.0392637     0.093101248
       4249.4800       1.0304879     0.093081811
       4250.4800       1.0232149     0.093062377
       4251.4800      0.98403589     0.093042947
       4252.4800      0.94312674     0.093023521
       4253.4800      0.91090420     0.093004099
       4254.4800      0.88963804     0.092984681
       4255.4800      0.87683554     0.092965267
       4256.4800      0.87060597     0.092945857
       4257.4800      0.87019572     0.092926450
       4258.4800      0.87485563     0.092907047
       4259.4800      0.88383210     0.092887649
       4260.4800      0.89638043     0.092868254
       4261.4800      0.91180051     0.092848863
       4262.4800      0.93332085     0.092829476
       4263.4800      0.96602498     0.092810092
       4264.4800       1.0061894     0.092790713
       4265.4800       1.0490874     0.092771337
       4266.4800       1.0900055     0.092751966
       4267.4800       1.1242525     0.092732598
       4268.4800       1.1332825     0.092713234
       4269.4800       1.1372379     0.092693874
       4270.4800       1.1357975     0.092674518
       4271.4800       1.1137331     0.092655165
       4272.4800       1.0751740     0.092635817
       4273.4800       1.0317186     0.092616472
       4274.4800      0.98886525     0.092597131
       4275.4800      0.95207645     0.092577795
       4276.4800      0.92679697     0.092558462
       4277.4800      0.91572465     0.092539133
       4278.4800      0.91126986     0.092519807
       4279.4800      0.91165782     0.092500486
       4280.4800      0.91778036     0.092481169
       4281.4800      0.93052936     0.092461855
       4282.4800      0.95078327     0.092442545
       4283.4800      0.97942948     0.092423240
       4284.4800       1.0174223     0.092403938
       4285.4800       1.0696401     0.092384639
       4286.4800       1.1393605     0.092365345
       4287.4800       1.2211654     0.092346055
       4288.4800       1.3090081     0.092326768
       4289.4800       1.3604545     0.092307486
       4290.4800       1.3703406     0.092288207
       4291.4800       1.3833438     0.092268932
       4292.4800       1.4010649     0.092249661
       4293.4900       1.4251181     0.092230202
       4294.4900       1.4542013     0.092210939
       4295.4900       1.4858798     0.092191679
       4296.4900       1.5177188     0.092172424
       4297.4900       1.5473015     0.092153172
       4298.4900       1.5722153     0.092133925
       4299.4900       1.5900612     0.092114681
       4300.4900       1.5987657     0.092095441
       4301.4900       1.5987345     0.092076205
       4302.4900       1.5922730     0.092056973
       4303.4900       1.5817804     0.092037745
       4304.4900       1.5696646     0.092018520
       4305.4900       1.5583158     0.091999300
       4306.4900       1.5501108     0.091980083
       4307.4900       1.5473684     0.091960870
       4308.4900       1.5507173     0.091941662
       4309.4900       1.5583783     0.091922457
       4310.4900       1.5687594     0.091903255
       4311.4900       1.5803178     0.091884058
       4312.4900       1.5915149     0.091864865
       4313.4900       1.6008125     0.091845675
       4314.4900       1.6066942     0.091826490
       4315.4900       1.6079473     0.091807308
       4316.4900       1.6055348     0.091788130
       4317.4900       1.6004959     0.091768956
       4318.4900       1.5933388     0.091749786
       4319.4900       1.5845674     0.091730620
       4320.4900       1.5746902     0.091711458
       4321.4900       1.5642154     0.091692300
       4322.4900       1.5536292     0.091673145
       4323.4900       1.5431276     0.091653994
       4324.4900       1.5322248     0.091634848
       4325.4900       1.5207244     0.091615705
       4326.4900       1.5084748     0.091596566
       4327.4900       1.4953468     0.091577431
       4328.4900       1.4811976     0.091558299
       4329.4900       1.4658890     0.091539172
       4330.4900       1.4488992     0.091520049
       4331.4900       1.4246052     0.091500929
       4332.4900       1.3917495     0.091481813
       4333.4900       1.3554022     0.091462701
       4334.4900       1.3207895     0.091443594
       4335.4900       1.2931064     0.091424490
       4336.4900       1.2775258     0.091405389
       4337.4900       1.2791936     0.091386293
       4338.4900       1.3048298     0.091367201
       4339.4900       1.3622382     0.091348112
       4340.4900       1.4440297     0.091329028
       4341.4900       1.5388869     0.091309947
       4342.4900       1.6355589     0.091290870
       4343.4900       1.7228354     0.091271797
       4344.4900       1.7626654     0.091252728
       4345.4900       1.7560389     0.091233663
       4346.4900       1.7431428     0.091214601
       4347.4900       1.7237674     0.091195544
       4348.4900       1.6999371     0.091176491
       4349.4900       1.6419268     0.091157441
       4350.4900       1.5624585     0.091138395
       4351.4900       1.4904505     0.091119353
       4352.4900       1.4362974     0.091100315
       4353.4900       1.4095464     0.091081281
       4354.4900       1.4081685     0.091062251
       4355.4900       1.4239899     0.091043225
       4356.4900       1.4518691     0.091024202
       4357.4900       1.4867449     0.091005184
       4358.4900       1.5235961     0.090986169
       4359.4900       1.5574240     0.090967158
       4360.4900       1.5812364     0.090948151
       4361.4900       1.5869398     0.090929148
       4362.4900       1.5959697     0.090910149
       4363.4900       1.6078046     0.090891154
       4364.4900       1.6182481     0.090872163
       4365.4900       1.6202593     0.090853175
       4366.4900       1.6211957     0.090834192
       4367.4900       1.6217888     0.090815212
       4368.4900       1.6227431     0.090796236
       4369.4900       1.6237107     0.090777265
       4370.4900       1.6237330     0.090758297
       4371.4900       1.6229526     0.090739333
       4372.4900       1.6215970     0.090720372
       4373.4900       1.6198891     0.090701416
       4374.4900       1.6180430     0.090682464
       4375.4900       1.6162861     0.090663515
       4376.4900       1.6148101     0.090644571
       4377.4900       1.6135615     0.090625630
       4378.4900       1.6123753     0.090606693
       4379.5000       1.6111312     0.090587571
       4380.5000       1.6097087     0.090568642
       4381.5000       1.6079919     0.090549717
       4382.5000       1.6058603     0.090530795
       4383.5000       1.6031982     0.090511878
       4384.5000       1.5993588     0.090492965
       4385.5000       1.5932942     0.090474055
       4386.5000       1.5858294     0.090455149
       4387.5000       1.5780837     0.090436248
       4388.5000       1.5711808     0.090417350
       4389.5000       1.5662310     0.090398456
       4390.5000       1.5643447     0.090379566
       4391.5000       1.5667349     0.090360679
       4392.5000       1.5764962     0.090341797
       4393.5000       1.5939586     0.090322919
       4394.5000       1.6157287     0.090304044
       4395.5000       1.6382925     0.090285174
       4396.5000       1.6581495     0.090266307
       4397.5000       1.6718171     0.090247444
       4398.5000       1.6758349     0.090228585
       4399.5000       1.6665507     0.090209730
       4400.5000       1.6416012     0.090190879
       4401.5000       1.6044780     0.090172032
       4402.5000       1.5601441     0.090153188
       4403.5000       1.5135271     0.090134349
       4404.5000       1.4695322     0.090115513
       4405.5000       1.4330466     0.090096682
       4406.5000       1.4089087     0.090077854
       4407.5000       1.3983804     0.090059030
       4408.5000       1.3963113     0.090040210
       4409.5000       1.4010426     0.090021394
       4410.5000       1.4116065     0.090002582
       4411.5000       1.4270311     0.089983774
       4412.5000       1.4463530     0.089964969
       4413.5000       1.4686091     0.089946169
       4414.5000       1.4932331     0.089927372
       4415.5000       1.5247555     0.089908580
       4416.5000       1.5647684     0.089889791
       4417.5000       1.6098335     0.089871006
       4418.5000       1.5917959     0.089852225
       4419.5000       1.5569781     0.089833448
       4420.5000       1.5271100     0.089814675
       4421.5000       1.5057234     0.089795906
       4422.5000       1.4960736     0.089777140
       4423.5000       1.4982319     0.089758379
       4424.5000       1.5090322     0.089739621
