# data from http://adsabs.harvard.edu/abs/1995A%26AS..110..513B
# via WISEREP
# de-redshifted assuming z= -0.000113000
# type is SNIIb
# phase is       215.200
# WARNING: fake error spectrum!

       4672.5300       2.9083923      0.11160551
       4673.5300       2.6996214      0.11157382
       4674.5300       2.4986076      0.11154214
       4675.5300       2.3504088      0.11151045
       4676.5300       2.2764699      0.11147877
       4677.5300       2.2654714      0.11144708
       4678.5300       2.3059732      0.11141540
       4679.5300       2.4026617      0.11138373
       4680.5300       2.5258831      0.11135205
       4681.5300       2.6481712      0.11132038
       4682.5300       2.7480509      0.11128871
       4683.5300       2.8049903      0.11125704
       4684.5300       2.8296265      0.11122537
       4685.5300       2.8294158      0.11119370
       4686.5300       2.8047896      0.11116204
       4687.5300       2.7559385      0.11113038
       4688.5300       2.6862546      0.11109872
       4689.5300       2.6043478      0.11106706
       4690.5300       2.5194004      0.11103541
       4691.5300       2.4373632      0.11100375
       4692.5300       2.3569718      0.11097210
       4693.5300       2.2828824      0.11094045
       4694.5300       2.2210358      0.11090881
       4695.5300       2.1713419      0.11087716
       4696.5300       2.1296258      0.11084552
       4697.5300       2.0962791      0.11081388
       4698.5300       2.0720242      0.11078224
       4699.5300       2.0577341      0.11075061
       4700.5300       2.0526764      0.11071897
       4701.5300       2.0548340      0.11068734
       4702.5300       2.0628119      0.11065571
       4703.5300       2.0794602      0.11062408
       4704.5300       2.1027818      0.11059246
       4705.5300       2.1276991      0.11056084
       4706.5300       2.1491442      0.11052921
       4707.5300       2.1631833      0.11049760
       4708.5300       2.1678496      0.11046598
       4709.5300       2.1615676      0.11043437
       4710.5300       2.1443775      0.11040275
       4711.5300       2.1209655      0.11037114
       4712.5300       2.0948440      0.11033954
       4713.5300       2.0689634      0.11030793
       4714.5300       2.0455816      0.11027633
       4715.5300       2.0247486      0.11024473
       4716.5300       2.0065248      0.11021313
       4717.5300       1.9909704      0.11018153
       4718.5300       1.9742920      0.11014994
       4719.5300       1.9530175      0.11011835
       4720.5300       1.9284415      0.11008676
       4721.5300       1.9021494      0.11005517
       4722.5300       1.8768709      0.11002359
       4723.5300       1.8560079      0.10999201
       4724.5300       1.8421694      0.10996043
       4725.5300       1.8378242      0.10992885
       4726.5300       1.8437148      0.10989727
       4727.5300       1.8578744      0.10986570
       4728.5300       1.8779346      0.10983413
       4729.5300       1.9013767      0.10980256
       4730.5300       1.9249994      0.10977100
       4731.5300       1.9463943      0.10973943
       4732.5300       1.9636347      0.10970787
       4733.5400       1.9764295      0.10967600
       4734.5400       1.9882810      0.10964444
       4735.5400       2.0003432      0.10961289
       4736.5400       2.0131480      0.10958134
       4737.5400       2.0280502      0.10954979
       4738.5400       2.0465650      0.10951824
       4739.5400       2.0671772      0.10948670
       4740.5400       2.0879499      0.10945516
       4741.5400       2.1075586      0.10942362
       4742.5400       2.1242972      0.10939208
       4743.5400       2.1355465      0.10936055
       4744.5400       2.1386273      0.10932902
       4745.5400       2.1307096      0.10929749
       4746.5400       2.1119339      0.10926596
       4747.5400       2.0845380      0.10923444
       4748.5400       2.0500874      0.10920292
       4749.5400       2.0069463      0.10917140
       4750.5400       1.9594300      0.10913988
       4751.5400       1.9147034      0.10910837
       4752.5400       1.8796105      0.10907685
       4753.5400       1.8580350      0.10904535
       4754.5400       1.8518533      0.10901384
       4755.5400       1.8630224      0.10898233
       4756.5400       1.8946933      0.10895083
       4757.5400       1.9470667      0.10891933
       4758.5400       2.0115725      0.10888784
       4759.5400       2.0786473      0.10885634
       4760.5400       2.1402330      0.10882485
       4761.5400       2.1913319      0.10879337
       4762.5400       2.2254212      0.10876188
       4763.5400       2.2357373      0.10873040
       4764.5400       2.2181959      0.10869892
       4765.5400       2.1775737      0.10866744
       4766.5400       2.1217482      0.10863596
       4767.5400       2.0585169      0.10860449
       4768.5400       1.9945730      0.10857302
       4769.5400       1.9367305      0.10854155
       4770.5400       1.8928168      0.10851009
       4771.5400       1.8695653      0.10847862
       4772.5400       1.8646281      0.10844717
       4773.5400       1.8731479      0.10841571
       4774.5400       1.8841464      0.10838425
       4775.5400       1.9098363      0.10835280
       4776.5400       1.9375835      0.10832135
       4777.5400       1.9632935      0.10828991
       4778.5400       1.9832333      0.10825846
       4779.5400       1.9957772      0.10822702
       4780.5400       2.0104687      0.10819559
       4781.5400       2.0253708      0.10816415
       4782.5400       2.0391892      0.10813272
       4783.5400       2.0507095      0.10810129
       4784.5400       2.0587376      0.10806986
       4785.5400       2.0617883      0.10803844
       4786.5400       2.0582560      0.10800702
       4787.5400       2.0450698      0.10797560
       4788.5400       2.0221094      0.10794418
       4789.5400       1.9924957      0.10791277
       4790.5400       1.9595404      0.10788136
       4791.5400       1.9278996      0.10784995
       4792.5400       1.9014670      0.10781855
       4793.5400       1.8825107      0.10778715
       4794.5400       1.8724053      0.10775575
       4795.5400       1.8672974      0.10772435
       4796.5400       1.8640059      0.10769296
       4797.5400       1.8607545      0.10766157
       4798.5400       1.8556065      0.10763018
       4799.5400       1.8467455      0.10759879
       4800.5400       1.8347836      0.10756741
       4801.5400       1.8209652      0.10753603
       4802.5400       1.8086621      0.10750466
       4803.5400       1.8030123      0.10747328
       4804.5400       1.8040660      0.10744191
       4805.5400       1.8111207      0.10741055
       4806.5400       1.8223500      0.10737918
       4807.5400       1.8335693      0.10734782
       4808.5400       1.8414268      0.10731646
       4809.5400       1.8427113      0.10728511
       4810.5400       1.8338403      0.10725375
       4811.5400       1.8153154      0.10722240
       4812.5400       1.7903681      0.10719106
       4813.5400       1.7623701      0.10715971
       4814.5400       1.7359476      0.10712837
       4815.5400       1.7156866      0.10709704
       4816.5400       1.7051899      0.10706570
       4817.5400       1.7074578      0.10703437
       4818.5400       1.7213364      0.10700304
       4819.5400       1.7434639      0.10697171
       4820.5400       1.7707494      0.10694039
       4821.5400       1.8003831      0.10690907
       4822.5400       1.8305989      0.10687775
       4823.5400       1.8585869      0.10684644
       4824.5500       1.8811559      0.10681482
       4825.5500       1.8983662      0.10678351
       4826.5500       1.9143321      0.10675220
       4827.5500       1.9279799      0.10672090
       4828.5500       1.9374831      0.10668960
       4829.5500       1.9400421      0.10665831
       4830.5500       1.9332583      0.10662701
       4831.5500       1.9176136      0.10659573
       4832.5500       1.8936396      0.10656444
       4833.5500       1.8591288      0.10653316
       4834.5500       1.8161182      0.10650188
       4835.5500       1.7711307      0.10647060
       4836.5500       1.7308196      0.10643933
       4837.5500       1.7019184      0.10640805
       4838.5500       1.6876986      0.10637679
       4839.5500       1.6895050      0.10634552
       4840.5500       1.7076987      0.10631426
       4841.5500       1.7366701      0.10628300
       4842.5500       1.7702476      0.10625175
       4843.5500       1.8031829      0.10622050
       4844.5500       1.8305588      0.10618925
       4845.5500       1.8501674      0.10615800
       4846.5500       1.8626913      0.10612676
       4847.5500       1.8690937      0.10609552
       4848.5500       1.8741715      0.10606429
       4849.5500       1.8858825      0.10603305
       4850.5500       1.9052704      0.10600182
       4851.5500       1.9324957      0.10597060
       4852.5500       1.9662539      0.10593938
       4853.5500       2.0017983      0.10590816
       4854.5500       2.0344526      0.10587694
       4855.5500       2.0595806      0.10584573
       4856.5500       2.0725861      0.10581452
       4857.5500       2.0732585      0.10578331
       4858.5500       2.0636950      0.10575211
       4859.5500       2.0461536      0.10572091
       4860.5500       2.0248189      0.10568971
       4861.5500       2.0050898      0.10565852
       4862.5500       1.9918334      0.10562733
       4863.5500       1.9883211      0.10559614
       4864.5500       1.9908801      0.10556496
       4865.5500       1.9987175      0.10553378
       4866.5500       2.0128269      0.10550260
       4867.5500       2.0339408      0.10547143
       4868.5500       2.0616177      0.10544026
       4869.5500       2.0952153      0.10540909
       4870.5500       2.1342721      0.10537792
       4871.5500       2.1828923      0.10534676
       4872.5500       2.2454915      0.10531561
       4873.5500       2.3163295      0.10528445
       4874.5500       2.3887129      0.10525331
       4875.5500       2.4562594      0.10522216
       4876.5500       2.5132188      0.10519102
       4877.5500       2.5539715      0.10515988
       4878.5500       2.5728475      0.10512874
       4879.5500       2.5661240      0.10509761
       4880.5500       2.5384772      0.10506648
       4881.5500       2.4976342      0.10503535
       4882.5500       2.4513020      0.10500423
       4883.5500       2.4067259      0.10497311
       4884.5500       2.3708805      0.10494199
       4885.5500       2.3507500      0.10491088
       4886.5500       2.3514524      0.10487977
       4887.5500       2.3685924      0.10484867
       4888.5500       2.3970721      0.10481757
       4889.5500       2.4328775      0.10478647
       4890.5500       2.4722554      0.10475537
       4891.5500       2.5119744      0.10472428
       4892.5500       2.5482414      0.10469319
       4893.5500       2.5771626      0.10466211
       4894.5500       2.5991195      0.10463103
       4895.5500       2.6186379      0.10459995
       4896.5500       2.6355370      0.10456888
       4897.5500       2.6491146      0.10453781
       4898.5500       2.6585978      0.10450674
       4899.5500       2.6635150      0.10447568
       4900.5500       2.6638461      0.10444462
       4901.5500       2.6594206      0.10441357
       4902.5500       2.6490744      0.10438251
       4903.5500       2.6335099      0.10435146
       4904.5500       2.6148546      0.10432042
       4905.5500       2.5952359      0.10428938
       4906.5500       2.5766408      0.10425834
       4907.5500       2.5603939      0.10422731
       4908.5500       2.5475991      0.10419628
       4909.5500       2.5386578      0.10416525
       4910.5600       2.5312720      0.10413392
       4911.5600       2.5241470      0.10410290
       4912.5600       2.5164802      0.10407188
       4913.5600       2.5075790      0.10404087
       4914.5600       2.4973332      0.10400986
       4915.5600       2.4859734      0.10397886
       4916.5600       2.4737707      0.10394785
       4917.5600       2.4621901      0.10391686
       4918.5600       2.4527370      0.10388586
       4919.5600       2.4449598      0.10385487
       4920.5600       2.4382363      0.10382389
       4921.5600       2.4314826      0.10379290
       4922.5600       2.4231936      0.10376193
       4923.5600       2.4121750      0.10373095
       4924.5600       2.3972126      0.10369998
       4925.5600       2.3773531      0.10366901
       4926.5600       2.3533390      0.10363805
       4927.5600       2.3264951      0.10360709
       4928.5600       2.2982060      0.10357613
       4929.5600       2.2700876      0.10354518
       4930.5600       2.2436350      0.10351423
       4931.5600       2.2202230      0.10348329
       4932.5600       2.2005441      0.10345234
       4933.5600       2.1831030      0.10342141
       4934.5600       2.1671974      0.10339047
       4935.5600       2.1524859      0.10335954
       4936.5600       2.1383664      0.10332862
       4937.5600       2.1240363      0.10329770
       4938.5600       2.1096158      0.10326678
       4939.5600       2.0953960      0.10323586
       4940.5600       2.0827015      0.10320495
       4941.5600       2.0728571      0.10317405
       4942.5600       2.0657121      0.10314314
       4943.5600       2.0610758      0.10311225
       4944.5600       2.0588882      0.10308135
       4945.5600       2.0582560      0.10305046
       4946.5600       2.0575134      0.10301957
       4947.5600       2.0547035      0.10298869
       4948.5600       2.0463342      0.10295781
       4949.5600       2.0322850      0.10292693
       4950.5600       2.0142720      0.10289606
       4951.5600       1.9941114      0.10286519
       4952.5600       1.9746131      0.10283433
       4953.5600       1.9590787      0.10280347
       4954.5600       1.9507094      0.10277262
       4955.5600       1.9524154      0.10274176
       4956.5600       1.9644877      0.10271092
       4957.5600       1.9849995      0.10268007
       4958.5600       2.0118435      0.10264923
       4959.5600       2.0422800      0.10261840
       4960.5600       2.0725359      0.10258756
       4961.5600       2.1000824      0.10255674
       4962.5600       2.1227819      0.10252591
       4963.5600       2.1426113      0.10249509
       4964.5600       2.1632837      0.10246428
       4965.5600       2.1845080      0.10243347
       4966.5600       2.2058125      0.10240266
       4967.5600       2.2270569      0.10237185
       4968.5600       2.2473881      0.10234105
       4969.5600       2.2650901      0.10231026
       4970.5600       2.2780454      0.10227947
       4971.5600       2.2823605      0.10224868
       4972.5600       2.2782762      0.10221790
       4973.5600       2.2681207      0.10218712
       4974.5600       2.2543324      0.10215634
       4975.5600       2.2402230      0.10212557
       4976.5600       2.2295958      0.10209480
       4977.5600       2.2261437      0.10206404
       4978.5600       2.2323856      0.10203328
       4979.5600       2.2469666      0.10200253
       4980.5600       2.2683214      0.10197178
       4981.5600       2.2951854      0.10194103
       4982.5600       2.3259632      0.10191029
       4983.5600       2.3584068      0.10187955
       4984.5600       2.3903185      0.10184882
       4985.5600       2.4198017      0.10181809
       4986.5600       2.4500878      0.10178736
       4987.5600       2.4840768      0.10175664
       4988.5600       2.5189087      0.10172592
       4989.5600       2.5515329      0.10169521
       4990.5600       2.5795008      0.10166450
       4991.5600       2.6003538      0.10163380
       4992.5600       2.6111918      0.10160310
       4993.5600       2.6084321      0.10157240
       4994.5600       2.5871275      0.10154171
       4995.5600       2.5503688      0.10151102
       4996.5600       2.5041872      0.10148034
       4997.5600       2.4545333      0.10144966
       4998.5600       2.4072277      0.10141899
       4999.5600       2.3686225      0.10138831
       5000.5600       2.3452407      0.10135765
       5001.5700       2.3413972      0.10132633
       5002.5700       2.3540515      0.10129653
       5003.5700       2.3791594      0.10126639
       5004.5700       2.4129578      0.10123634
       5005.5700       2.4517436      0.10120511
       5006.5700       2.4913623      0.10117420
       5007.5700       2.5271576      0.10114308
       5008.5700       2.5547141      0.10111182
       5009.5700       2.5754266      0.10108064
       5010.5700       2.5928275      0.10104933
       5011.5700       2.6065254      0.10101855
       5012.5700       2.6159785      0.10098789
       5013.5700       2.6208657      0.10095751
       5014.5700       2.6215882      0.10092683
       5015.5700       2.6187984      0.10089665
       5016.5700       2.6129881      0.10086609
       5017.5700       2.6040167      0.10083583
       5018.5700       2.5927372      0.10080567
       5019.5700       2.5803739      0.10077565
       5020.5700       2.5680407      0.10074512
       5021.5700       2.5561390      0.10071498
       5022.5700       2.5447993      0.10068418
       5023.5700       2.5341721      0.10065376
       5024.5700       2.5238159      0.10062346
       5025.5700       2.5123758      0.10059289
       5026.5700       2.4994807      0.10056290
       5027.5700       2.4848896      0.10053213
       5028.5700       2.4688635      0.10050202
       5029.5700       2.4521550      0.10047145
       5030.5700       2.4349447      0.10044075
       5031.5700       2.4172628      0.10041052
       5032.5700       2.3982864      0.10037986
       5033.5700       2.3775940      0.10034962
       5034.5700       2.3556973      0.10031880
       5035.5700       2.3329577      0.10028837
       5036.5700       2.3084820      0.10025784
       5037.5700       2.2828222      0.10022693
       5038.5700       2.2578648      0.10019591
       5039.5700       2.2358377      0.10016458
       5040.5700       2.2194804      0.10013344
       5041.5700       2.2091141      0.10010257
       5042.5700       2.2043575      0.10007178
       5043.5700       2.2049094      0.10004097
       5044.5700       2.2096961      0.10001056
       5045.5700       2.2155065     0.099980122
       5046.5700       2.2187679     0.099950209
       5047.5700       2.2141517     0.099919752
       5048.5700       2.1978447     0.099889657
       5049.5700       2.1721146     0.099859769
       5050.5700       2.1398316     0.099829760
       5051.5700       2.1055415     0.099799810
       5052.5700       2.0757171     0.099769851
       5053.5700       2.0555364     0.099739594
       5054.5700       2.0503382     0.099709395
       5055.5700       2.0671672     0.099678933
       5056.5700       2.1038054     0.099648143
       5057.5700       2.1521647     0.099617501
       5058.5700       2.2038055     0.099587029
       5059.5700       2.2481909     0.099556035
       5060.5700       2.2765101     0.099525401
       5061.5700       2.2816982     0.099494653
       5062.5700       2.2574132     0.099463863
       5063.5700       2.2050499     0.099433979
       5064.5700       2.1336499     0.099403601
       5065.5700       2.0529173     0.099373685
       5066.5700       1.9724455     0.099343613
       5067.5700       1.9006341     0.099313741
       5068.5700       1.8442266     0.099283707
       5069.5700       1.8097259     0.099253507
       5070.5700       1.7978744     0.099223181
       5071.5700       1.8000319     0.099192612
       5072.5700       1.8105186     0.099162230
       5073.5700       1.8242467     0.099131145
       5074.5700       1.8372221     0.099100543
       5075.5700       1.8471569     0.099069551
