# starting wavelength =        2758.5700
# ending wavelength =        5119.1500
# O2 telluric scale =        0
# O2 telluric shift =        0
# H2O telluric scale =        0
# H2O telluric shift =        0
      2760.85       1.7135735     0.025503597
      2763.61       1.6752796     0.022181479
      2766.38       1.6430777     0.018720217
      2769.14       1.6142534     0.016661400
      2771.91       1.5915715     0.014513284
      2774.69       1.5751056     0.013267718
      2777.46       1.5611597     0.011974530
      2780.24       1.5503486     0.011124848
      2783.02       1.5428255     0.010544740
      2785.80       1.5353724    0.0099490867
      2788.59       1.5311930    0.0095906385
      2791.38       1.5258275    0.0092265783
      2794.17       1.5268203    0.0089911280
      2796.96       1.5306029    0.0087456369
      2799.76       1.5346028    0.0085499304
      2802.56       1.5409090    0.0084043978
      2805.36       1.5472668    0.0082678458
      2808.17       1.5550441    0.0081553989
      2810.98       1.5625704    0.0081713138
      2813.79       1.5727657    0.0081218180
      2816.60       1.5824753    0.0081378779
      2819.42       1.5962688    0.0081534681
      2822.24       1.6111086    0.0081702453
      2825.06       1.6229364    0.0081862393
      2827.88       1.6342344    0.0081676321
      2830.71       1.6415413    0.0081844617
      2833.54       1.6506318    0.0082015135
      2836.38       1.6587101    0.0082191865
      2839.21       1.6690428    0.0082367362
      2842.05       1.6814863    0.0082182242
      2844.90       1.6885901    0.0082360148
      2847.74       1.6913503    0.0082545424
      2850.59       1.6922088    0.0082733008
      2853.44       1.6940575    0.0082922512
      2856.29       1.6992799    0.0082737085
      2859.15       1.7014337    0.0082926946
      2862.01       1.7087303    0.0083126358
      2864.87       1.7167292    0.0082972131
      2867.74       1.7263229    0.0082781188
      2870.60       1.7277623    0.0082986461
      2873.47       1.7315360    0.0083185695
      2876.35       1.7372409    0.0083405054
      2879.22       1.7466646    0.0083578243
      2882.10       1.7574747    0.0083787640
      2884.99       1.7710051    0.0084010326
      2887.87       1.7852295    0.0084234181
      2890.76       1.7995545    0.0084462289
      2893.65       1.8142268    0.0084274080
      2896.54       1.8231236    0.0084504396
      2899.44       1.8309266    0.0084741352
      2902.34       1.8367320    0.0084554605
      2905.24       1.8385227    0.0084791321
      2908.15       1.8472356    0.0085037986
      2911.06       1.8588058    0.0085294540
      2913.97       1.8625833    0.0085096252
      2916.88       1.8731325    0.0085352281
      2919.80       1.8819530    0.0085617501
      2922.72       1.8893430    0.0085877587
      2925.64       1.8984837    0.0085683959
      2928.57       1.9023017    0.0085961204
      2931.50       1.9051271    0.0086678887
      2934.43       1.9155026    0.0086965105
      2937.36       1.9175719    0.0086772533
      2940.30       1.9258913    0.0087066120
      2943.24       1.9305648    0.0087362700
      2946.18       1.9300500    0.0087167402
      2949.13       1.9308178    0.0087476734
      2952.08       1.9329302    0.0087783309
      2955.03       1.9394995    0.0088598706
      2957.99       1.9355672    0.0088404341
      2960.94       1.9336284    0.0088735169
      2963.90       1.9271705    0.0089070635
      2966.87       1.9157572    0.0088871368
      2969.84       1.9071876    0.0089227800
      2972.81       1.8949575    0.0089572325
      2975.78       1.8784127    0.0089906726
      2978.76       1.8673540    0.0090278963
      2981.73       1.8526702    0.0090665908
      2984.72       1.8497586    0.0090454708
      2987.70       1.8372152    0.0090836552
      2990.69       1.8382016    0.0091819532
      2993.68       1.8345615    0.0091620797
      2996.67       1.8297542    0.0092031394
      2999.67       1.8220934    0.0091226674
      3002.67       1.8177461    0.0091021063
      3005.67       1.8167819    0.0090822068
      3008.68       1.8084781    0.0090625227
      3011.69       1.7966018    0.0090435698
      3014.70       1.7863150    0.0090229300
      3017.71       1.7711630    0.0090027862
      3020.73       1.7518690    0.0089830500
      3023.75       1.7356142    0.0089636868
      3026.78       1.7174701    0.0088853695
      3029.80       1.7082920    0.0089242996
      3032.83       1.7000821    0.0089042732
      3035.87       1.6863545    0.0088845603
      3038.90       1.6769043    0.0088087019
      3041.94       1.6680845    0.0087883974
      3044.98       1.6659597    0.0087681356
      3048.03       1.6654215    0.0087483596
      3051.08       1.6598996    0.0087869264
      3054.13       1.6609690    0.0087132752
      3057.18       1.6591455    0.0086929690
      3060.24       1.6651955    0.0086727583
      3063.30       1.6646745    0.0086529093
      3066.36       1.6603946    0.0086332159
      3069.43       1.6567725    0.0085591863
      3072.50       1.6505738    0.0085399195
      3075.57       1.6369935    0.0085208465
      3078.65       1.6188619    0.0085019488
      3081.73       1.6080842    0.0085393245
      3084.81       1.5911859    0.0085197286
      3087.89       1.5834550    0.0085002929
      3090.98       1.5774656    0.0084274377
      3094.07       1.5695749    0.0084082658
      3097.17       1.5656928    0.0083893921
      3100.26       1.5583360    0.0083704642
      3103.36       1.5496714    0.0083517946
      3106.47       1.5376174    0.0083330838
      3109.58       1.5303725    0.0083145948
      3112.68       1.5261249    0.0082444573
      3115.80       1.5239375    0.0082255796
      3118.91       1.5265600    0.0082068474
      3122.03       1.5182503    0.0081881414
      3125.15       1.5171212    0.0081697124
      3128.28       1.5188317    0.0081512369
      3131.41       1.5098161    0.0081328552
      3134.54       1.5093687    0.0081145009
      3137.67       1.5088935    0.0080961977
      3140.81       1.5149332    0.0080779011
      3143.95       1.5213309    0.0080101790
      3147.10       1.5319279    0.0079921561
      3150.24       1.5439280    0.0079741962
      3153.39       1.5525458    0.0079562614
      3156.55       1.5605574    0.0079383856
      3159.70       1.5684814    0.0079205452
      3162.86       1.5666616    0.0079027468
      3166.03       1.5678766    0.0078849731
      3169.19       1.5661331    0.0078672464
      3172.36       1.5634855    0.0078495560
      3175.54       1.5583263    0.0078318963
      3178.71       1.5529972    0.0078142664
      3181.89       1.5425371    0.0077966856
      3185.07       1.5425274    0.0077792674
      3188.26       1.5454680    0.0077616670
      3191.45       1.5421324    0.0077442611
      3194.64       1.5492601    0.0077266986
      3197.83       1.5532037    0.0077093523
      3201.03       1.5601660    0.0076918650
      3204.23       1.5633670    0.0076745971
      3207.44       1.5666587    0.0076572203
      3210.64       1.5739557    0.0076400599
      3213.85       1.5847483    0.0075746550
      3217.07       1.5926659    0.0075576866
      3220.28       1.6024239    0.0075407377
      3223.51       1.6041154    0.0075238994
      3226.73       1.6068509    0.0075070969
      3229.96       1.6069262    0.0074903993
      3233.19       1.6074948    0.0074737339
      3236.42       1.6092152    0.0074571870
      3239.66       1.6109647    0.0074407849
      3242.90       1.6161402    0.0073775324
      3246.14       1.6213947    0.0073606886
      3249.39       1.6211514    0.0073441801
      3252.64       1.6192022    0.0073275040
      3255.89       1.6191852    0.0073111730
      3259.14       1.6192467    0.0072946797
      3262.40       1.6206708    0.0072785679
      3265.67       1.6253614    0.0072174841
      3268.93       1.6306380    0.0072016132
      3272.20       1.6370791    0.0071857670
      3275.47       1.6363647    0.0071701637
      3278.75       1.6379760    0.0071959495
      3282.03       1.6423407    0.0071797341
      3285.31       1.6476190    0.0071195315
      3288.60       1.6520305    0.0071037708
      3291.88       1.6528303    0.0070881240
      3295.18       1.6538165    0.0070725187
      3298.47       1.6524535    0.0070572509
      3301.77       1.6448092    0.0070421255
      3305.07       1.6380961    0.0069821799
      3308.38       1.6332577    0.0070076989
      3311.69       1.6197843    0.0069921267
      3315.00       1.6097716    0.0069770219
      3318.31       1.6014643    0.0069190408
      3321.63       1.5892005    0.0069034233
      3324.95       1.5815770    0.0068879301
      3328.28       1.5784532    0.0068727983
      3331.61       1.5709576    0.0068577664
      3334.94       1.5635697    0.0068412239
      3338.27       1.5541607    0.0068257865
      3341.61       1.5503546    0.0068104792
      3344.95       1.5505841    0.0067955636
      3348.30       1.5500291    0.0067399462
      3351.65       1.5455328    0.0067255772
      3355.00       1.5394246    0.0067491256
      3358.35       1.5349060    0.0067342339
      3361.71       1.5268945    0.0066789570
      3365.07       1.5214366    0.0066647523
      3368.44       1.5195598    0.0066508034
      3371.81       1.5140927    0.0066332102
      3375.18       1.5056974    0.0066188512
      3378.56       1.5015411    0.0066047208
      3381.94       1.4966730    0.0065910967
      3385.32       1.4839364    0.0065362347
      3388.70       1.4717143    0.0065595742
      3392.09       1.4618353    0.0065456500
      3395.48       1.4474569    0.0064919080
      3398.88       1.4366573    0.0064776516
      3402.28       1.4239797    0.0065009525
      3405.68       1.4166862    0.0064482251
      3409.09       1.4124724    0.0064339062
      3412.49       1.4066940    0.0064200873
      3415.91       1.4028205    0.0064049704
      3419.32       1.3974968    0.0063905779
      3422.74       1.3958276    0.0063767683
      3426.17       1.3958277    0.0063258874
      3429.59       1.3999594    0.0063476481
      3433.02       1.4036910    0.0063338893
      3436.45       1.4047601    0.0062833471
      3439.89       1.4100055    0.0063051049
      3443.33       1.4097612    0.0062543272
      3446.78       1.4027654    0.0062412777
      3450.22       1.3970913    0.0062287490
      3453.67       1.3900039    0.0062127123
      3457.13       1.3857702    0.0061998531
      3460.58       1.3815373    0.0061501629
      3464.04       1.3772729    0.0061714541
      3467.51       1.3753026    0.0061588141
      3470.98       1.3750287    0.0061091925
      3474.45       1.3735975    0.0061305938
      3477.92       1.3677111    0.0060819496
      3481.40       1.3626020    0.0060688954
      3484.88       1.3583205    0.0060903589
      3488.37       1.3546317    0.0060416382
      3491.86       1.3495954    0.0060289599
      3495.35       1.3482794    0.0060148899
      3498.84       1.3419315    0.0060018686
      3502.34       1.3350909    0.0059551265
      3505.84       1.3228946    0.0059752593
      3509.35       1.3055537    0.0059283321
      3512.86       1.2877897    0.0059488632
      3516.37       1.2778785    0.0059020096
      3519.89       1.2684967    0.0058901285
      3523.41       1.2646012    0.0059099208
      3526.93       1.2561891    0.0058639577
      3530.46       1.2497056    0.0058528423
      3533.99       1.2444882    0.0058379832
      3537.53       1.2387452    0.0058267669
      3541.06       1.2347638    0.0058122079
      3544.60       1.2298105    0.0058010142
      3548.15       1.2286398    0.0057867029
      3551.70       1.2244889    0.0057754594
      3555.25       1.2188794    0.0057300075
      3558.80       1.2158012    0.0057171874
      3562.36       1.2162150    0.0057050899
      3565.92       1.2152354    0.0056924008
      3569.49       1.2123257    0.0056803367
      3573.06       1.2050735    0.0056678344
      3576.64       1.1978523    0.0056558672
      3580.21       1.1876626    0.0056432888
      3583.79       1.1836963    0.0056315171
      3587.38       1.1764585    0.0055889618
      3590.96       1.1733327    0.0056072897
      3594.55       1.1615944    0.0055651196
      3598.15       1.1560451    0.0055519655
      3601.75       1.1462948    0.0055414643
      3605.35       1.1406522    0.0055282955
      3608.96       1.1365254    0.0055181238
      3612.56       1.1265872    0.0055049529
      3616.18       1.1182213    0.0054633007
      3619.79       1.1105693    0.0054818466
      3623.41       1.1088178    0.0054401847
      3627.04       1.1105049    0.0054588701
      3630.66       1.1164067    0.0054172610
      3634.29       1.1185099    0.0054054554
      3637.93       1.1241546    0.0054235714
      3641.57       1.1278993    0.0053827421
      3645.21       1.1282691    0.0054012120
      3648.86       1.1264804    0.0053603214
      3652.50       1.1276554    0.0053488272
      3656.16       1.1251022    0.0053381931
      3659.81       1.1226994    0.0053265905
      3663.47       1.1184181    0.0052871952
      3667.14       1.1172725    0.0053046711
      3670.80       1.1165487    0.0052933701
      3674.48       1.1098720    0.0052539815
      3678.15       1.1021334    0.0052715018
      3681.83       1.0960430    0.0052328562
      3685.51       1.0941295    0.0052212543
      3689.20       1.0920763    0.0052123093
      3692.88       1.0939842    0.0052004644
      3696.58       1.0941808    0.0051890644
      3700.27       1.0979923    0.0051509774
      3703.98       1.0977321    0.0051685213
      3707.68       1.0990982    0.0051573815
      3711.39       1.1007060    0.0051195964
      3715.10       1.1006059    0.0051370400
      3718.81       1.0994724    0.0050992248
      3722.53       1.0977761    0.0050885966
      3726.26       1.0946237    0.0050782880
      3729.98       1.0950443    0.0050684605
      3733.71       1.0913165    0.0050579470
      3737.45       1.0899616    0.0050477363
      3741.18       1.0866587    0.0050111896
      3744.93       1.0803054    0.0050277565
      3748.67       1.0781489    0.0050175505
      3752.42       1.0763327    0.0049816542
      3756.17       1.0766558    0.0049712904
      3759.93       1.0789898    0.0049879536
      3763.69       1.0790356    0.0049528023
      3767.45       1.0845565    0.0049424069
      3771.22       1.0872944    0.0049322346
      3774.99       1.0885376    0.0048971176
      3778.77       1.0905593    0.0049141110
      3782.54       1.0900298    0.0049040060
      3786.33       1.0896114    0.0048940463
      3790.11       1.0887924    0.0048591991
      3793.90       1.0869863    0.0048497730
      3797.70       1.0860013    0.0048404513
      3801.50       1.0833776    0.0048566423
      3805.30       1.0762850    0.0048221138
      3809.10       1.0691971    0.0048127465
      3812.91       1.0582889    0.0048035962
      3816.73       1.0525638    0.0047945231
      3820.54       1.0480939    0.0047607915
      3824.36       1.0417648    0.0047766175
      3828.19       1.0400156    0.0047675482
      3832.02       1.0404893    0.0047585717
      3835.85       1.0385347    0.0047257963
      3839.68       1.0422786    0.0047166219
      3843.52       1.0430316    0.0047075557
      3847.37       1.0429432    0.0046986645
      3851.22       1.0430085    0.0046898710
      3855.07       1.0418360    0.0046827859
      3858.92       1.0456263    0.0046738134
      3862.78       1.0491713    0.0046649400
      3866.64       1.0478522    0.0046562341
      3870.51       1.0465823    0.0046476141
      3874.38       1.0463549    0.0046156900
      3878.26       1.0435787    0.0046073602
      3882.13       1.0337459    0.0045990193
      3886.02       1.0310720    0.0045908075
      3889.90       1.0326282    0.0045826502
      3893.79       1.0311575    0.0045745459
      3897.69       1.0285019    0.0045665497
      3901.59       1.0243792    0.0045355560
      3905.49       1.0205378    0.0045275078
      3909.39       1.0145621    0.0045195298
      3913.30       1.0093996    0.0045115951
      3917.22       1.0063234    0.0045037125
      3921.13      0.99838987    0.0044958854
      3925.06      0.99943936    0.0044882023
      3928.98      0.99788613    0.0044804784
      3932.91      0.99578454    0.0044507655
      3936.84      0.99322170    0.0044432081
      3940.78      0.99268880    0.0044356895
      3944.72      0.98894192    0.0044282545
      3948.67      0.98914917    0.0044208069
      3952.61      0.98611934    0.0044134522
      3956.57      0.98474559    0.0044061840
      3960.52      0.98686481    0.0043989032
      3964.48      0.98959055    0.0043917106
      3968.45      0.99079666    0.0043845567
      3972.42      0.99155372    0.0043774419
      3976.39      0.98977304    0.0043704079
      3980.37      0.98687190    0.0043633666
      3984.35      0.98521503    0.0043563830
      3988.33      0.98256422    0.0043495003
      3992.32      0.98409301    0.0043425821
      3996.31      0.98504283    0.0043357410
      4000.31      0.98697389    0.0043289189
      4004.31      0.98317246    0.0043221797
      4008.31      0.97987779    0.0043154732
      4012.32      0.97853566    0.0042872249
      4016.33      0.97770824    0.0042806844
      4020.35      0.97110113    0.0042741814
      4024.37      0.97275673    0.0042677572
      4028.40      0.96773680    0.0042613243
      4032.42      0.96382961    0.0042550065
      4036.46      0.96062759    0.0042487757
      4040.50      0.95773537    0.0042425437
      4044.54      0.95009190    0.0042153727
      4048.58      0.94112105    0.0042091494
      4052.63      0.93336231    0.0042030276
      4056.68      0.92647270    0.0041969503
      4060.74      0.92110369    0.0041909339
      4064.80      0.91090429    0.0041849698
      4068.86      0.90267421    0.0041586052
      4072.93      0.89043262    0.0041528413
      4077.01      0.88250248    0.0041471548
      4081.08      0.87061766    0.0041415759
      4085.17      0.86200712    0.0041360873
      4089.25      0.85409292    0.0041306821
      4093.34      0.84679491    0.0041240343
      4097.43      0.84308080    0.0041185191
      4101.53      0.83589832    0.0041130826
      4105.63      0.82545981    0.0041078003
      4109.74      0.81715063    0.0040823821
      4113.85      0.80874705    0.0040769660
      4117.96      0.79996878    0.0040717114
      4122.08      0.78647911    0.0040665597
      4126.20      0.78035301    0.0040614235
      4130.33      0.77554119    0.0040561043
      4134.46      0.76896626    0.0040509213
      4138.59      0.76105777    0.0040458518
      4142.73      0.75217030    0.0040215146
      4146.88      0.74773499    0.0040166986
      4151.02      0.74582354    0.0040308518
      4155.18      0.74530983    0.0040259003
      4159.33      0.74418203    0.0040017916
      4163.49      0.74598081    0.0039972072
      4167.65      0.75165569    0.0039927681
      4171.82      0.75518472    0.0039688389
      4175.99      0.76040587    0.0039830338
      4180.17      0.76470458    0.0039786178
      4184.35      0.76926847    0.0039552181
      4188.54      0.77631409    0.0039506934
      4192.72      0.78247220    0.0039650216
      4196.92      0.78669484    0.0039608185
      4201.11      0.78939844    0.0039375729
      4205.31      0.79500579    0.0039332646
      4209.52      0.79876616    0.0039107155
      4213.73      0.79857419    0.0039248949
      4217.94      0.79946054    0.0039206847
      4222.16      0.79897938    0.0038983290
      4226.38      0.80469350    0.0039126957
      4230.61      0.80696259    0.0039085821
      4234.84      0.80941824    0.0038863977
      4239.08      0.81282555    0.0038828059
