# starting wavelength =        2889.3900
# ending wavelength =        8909.2431
# O2 telluric scale =       0.56890130
# O2 telluric shift =        3.4259357
# H2O telluric scale =       0.53198862
# H2O telluric shift =        2.7945580
      2890.76       1.6684139     0.027629500
      2893.65       1.6753564     0.023143963
      2896.54       1.6801418     0.019668077
      2899.44       1.6913079     0.016736990
      2902.34       1.7058740     0.014667402
      2905.24       1.7250294     0.013053235
      2908.15       1.7421896     0.011847096
      2911.06       1.7581693     0.010932285
      2913.97       1.7712985    0.0099346121
      2916.88       1.7815088    0.0092170339
      2919.80       1.7926266    0.0087414984
      2922.72       1.8060040    0.0083810495
      2925.64       1.8235430    0.0081102294
      2928.57       1.8381042    0.0078884837
      2931.50       1.8477337    0.0077404680
      2934.43       1.8534032    0.0075708017
      2937.36       1.8549954    0.0074164911
      2940.30       1.8574727    0.0072996704
      2943.24       1.8591726    0.0071680663
      2946.18       1.8605568    0.0070553851
      2949.13       1.8562928    0.0070128177
      2952.08       1.8554991    0.0069272243
      2955.03       1.8548965    0.0068353103
      2957.99       1.8496639    0.0067807871
      2960.94       1.8386858    0.0066765182
      2963.90       1.8254956    0.0065662822
      2966.87       1.8109015    0.0064835340
      2969.84       1.7917871    0.0063609758
      2972.81       1.7748033    0.0062210934
      2975.78       1.7591407    0.0060951759
      2978.76       1.7446109    0.0060079835
      2981.73       1.7265046    0.0058819758
      2984.72       1.7080864    0.0057580114
      2987.70       1.6899833    0.0056663570
      2990.69       1.6695025    0.0055487092
      2993.68       1.6538957    0.0054365645
      2996.67       1.6452409    0.0053305272
      2999.67       1.6375083    0.0052606965
      3002.67       1.6330912    0.0051682144
      3005.67       1.6349492    0.0050851228
      3008.68       1.6358184    0.0050129474
      3011.69       1.6377378    0.0049785634
      3014.70       1.6439698    0.0049366002
      3017.71       1.6489141    0.0048858476
      3020.73       1.6540690    0.0047711811
      3023.75       1.6578816    0.0047094854
      3026.78       1.6626581    0.0046429958
      3029.80       1.6687680    0.0045780565
      3032.83       1.6752195    0.0045146953
      3035.87       1.6833161    0.0044770301
      3038.90       1.6920810    0.0044161431
      3041.94       1.6979317    0.0043567864
      3044.98       1.7067068    0.0042989433
      3048.03       1.7153414    0.0042425101
      3051.08       1.7223774    0.0042096349
      3054.13       1.7287960    0.0041557184
      3057.18       1.7323065    0.0041032051
      3060.24       1.7331520    0.0040520600
      3063.30       1.7331014    0.0040022879
      3066.36       1.7348537    0.0039747638
      3069.43       1.7353433    0.0039360378
      3072.50       1.7324372    0.0038898652
      3075.57       1.7326043    0.0038449609
      3078.65       1.7332224    0.0038013294
      3081.73       1.7311999    0.0037781763
      3084.81       1.7288728    0.0037366053
      3087.89       1.7250756    0.0036962774
      3090.98       1.7226893    0.0036570880
      3094.07       1.7241029    0.0036191186
      3097.17       1.7292039    0.0035822751
      3100.26       1.7352272    0.0035641155
      3103.36       1.7388744    0.0035385972
      3106.47       1.7470727    0.0035047732
      3109.58       1.7518204    0.0034720700
      3112.68       1.7606365    0.0034403483
      3115.80       1.7685607    0.0034096730
      3118.91       1.7766221    0.0033800202
      3122.03       1.7822797    0.0033674736
      3125.15       1.7902336    0.0033491592
      3128.28       1.8002099    0.0033221780
      3131.41       1.8108694    0.0032961130
      3134.54       1.8222581    0.0032710069
      3137.67       1.8333987    0.0032467208
      3140.81       1.8422820    0.0032233679
      3143.95       1.8521629    0.0032106884
      3147.10       1.8578518    0.0032038285
      3150.24       1.8613662    0.0031827505
      3153.39       1.8662308    0.0031624683
      3156.55       1.8664722    0.0031429977
      3159.70       1.8670147    0.0031242574
      3162.86       1.8712385    0.0031162116
      3166.03       1.8699803    0.0030988539
      3169.19       1.8679091    0.0030822006
      3172.36       1.8658800    0.0030662185
      3175.54       1.8648291    0.0030613033
      3178.71       1.8581405    0.0030466525
      3181.89       1.8520569    0.0030326265
      3185.07       1.8432368    0.0030191655
      3188.26       1.8365671    0.0030304269
      3191.45       1.8312882    0.0030180459
      3194.64       1.8260898    0.0030061718
      3197.83       1.8145292    0.0029948404
      3201.03       1.8024584    0.0029947278
      3204.23       1.7895785    0.0029843155
      3207.44       1.7784422    0.0029743655
      3210.64       1.7649613    0.0029648298
      3213.85       1.7516388    0.0029669478
      3217.07       1.7388957    0.0029583147
      3220.28       1.7286074    0.0029501392
      3223.51       1.7155264    0.0029423581
      3226.73       1.7010091    0.0029460653
      3229.96       1.6892054    0.0029389007
      3233.19       1.6782709    0.0029321587
      3236.42       1.6659683    0.0029373877
      3239.66       1.6554736    0.0029314468
      3242.90       1.6489363    0.0029258149
      3246.14       1.6438984    0.0029321842
      3249.39       1.6377856    0.0029271313
      3252.64       1.6353110    0.0029224613
      3255.89       1.6351030    0.0029302363
      3259.14       1.6358945    0.0029263032
      3262.40       1.6406604    0.0029227472
      3265.67       1.6459406    0.0029314447
      3268.93       1.6530704    0.0029284140
      3272.20       1.6623466    0.0029256917
      3275.47       1.6724945    0.0029359171
      3278.75       1.6833148    0.0029339172
      3282.03       1.6957734    0.0029446799
      3285.31       1.7029801    0.0029431816
      3288.60       1.7102008    0.0029420341
      3291.88       1.7198969    0.0029542764
      3295.18       1.7309638    0.0029408269
      3298.47       1.7376743    0.0029536384
      3301.77       1.7442067    0.0029536383
      3305.07       1.7502464    0.0029539958
      3308.38       1.7534703    0.0029679246
      3311.69       1.7571462    0.0029686808
      3315.00       1.7616689    0.0029834845
      3318.31       1.7644918    0.0029849824
      3321.63       1.7674386    0.0030005105
      3324.95       1.7699052    0.0030023907
      3328.28       1.7706976    0.0030045958
      3331.61       1.7692798    0.0030213998
      3334.94       1.7660995    0.0030108170
      3338.27       1.7647084    0.0030556719
      3341.61       1.7639090    0.0031228109
      3344.95       1.7617809    0.0032127000
      3348.30       1.7597439    0.0032186361
      3351.65       1.7584948    0.0031019102
      3355.00       1.7539869    0.0030909445
      3358.35       1.7475884    0.0031334144
      3361.71       1.7397758    0.0031898648
      3365.07       1.7334257    0.0032648137
      3368.44       1.7269817    0.0033447709
      3371.81       1.7221647    0.0034510717
      3375.18       1.7163642    0.0035309428
      3378.56       1.7102614    0.0036202153
      3381.94       1.7016962    0.0036753952
      3385.32       1.6976157    0.0037031277
      3388.70       1.6934030    0.0036765703
      3392.09       1.6952290    0.0036480940
      3395.48       1.6980053    0.0035812795
      3398.88       1.7004679    0.0035240941
      3402.28       1.7039147    0.0034555837
      3405.68       1.7073519    0.0033690969
      3409.09       1.7136458    0.0033286694
      3412.49       1.7190424    0.0033027060
      3415.91       1.7288797    0.0033922499
      3419.32       1.7385764    0.0035949089
      3422.74       1.7445180    0.0034877246
      3426.17       1.7514660    0.0033887569
      3429.59       1.7578683    0.0033589615
      3433.02       1.7628138    0.0033856255
      3436.45       1.7684545    0.0033940522
      3439.89       1.7763386    0.0034054789
      3443.33       1.7856700    0.0034330552
      3446.78       1.7946425    0.0034420568
      3450.22       1.8034742    0.0034700862
      3453.67       1.8128396    0.0034989653
      3457.13       1.8217005    0.0034912169
      3460.58       1.8324094    0.0035203533
      3464.04       1.8427549    0.0035300488
      3467.51       1.8548094    0.0035592516
      3470.98       1.8660199    0.0035720442
      3474.45       1.8749676    0.0035813171
      3477.92       1.8859267    0.0036120274
      3481.40       1.8935202    0.0036426583
      3484.88       1.8971503    0.0036560529
      3488.37       1.9000726    0.0036654735
      3491.86       1.9017502    0.0036972666
      3495.35       1.9051763    0.0037103343
      3498.84       1.9067360    0.0037203431
      3502.34       1.9061809    0.0037523666
      3505.84       1.9079771    0.0037434983
      3509.35       1.9127456    0.0037757352
      3512.86       1.9208705    0.0037667175
      3516.37       1.9280564    0.0037990309
      3519.89       1.9326339    0.0037898553
      3523.41       1.9387141    0.0038222303
      3526.93       1.9465195    0.0038128856
      3530.46       1.9539351    0.0038257218
      3533.99       1.9645981    0.0038358633
      3537.53       1.9797227    0.0038486045
      3541.06       1.9942327    0.0038586974
      3544.60       2.0073108    0.0038712217
      3548.15       2.0188214    0.0038813910
      3551.70       2.0265580    0.0038936367
      3555.25       2.0334864    0.0038832413
      3558.80       2.0429417    0.0039157732
      3562.36       2.0498945    0.0039049623
      3565.92       2.0536715    0.0039176300
      3569.49       2.0555967    0.0039264604
      3573.06       2.0588246    0.0039387388
      3576.64       2.0636991    0.0039709864
      3580.21       2.0675365    0.0039595826
      3583.79       2.0654189    0.0039717373
      3587.38       2.0543247    0.0039801213
      3590.96       2.0409566    0.0039917738
      3594.55       2.0282066    0.0039802180
      3598.15       2.0127569    0.0040114376
      3601.75       1.9972323    0.0039997946
      3605.35       1.9790508    0.0040103420
      3608.96       1.9608700    0.0040414364
      3612.56       1.9419496    0.0040290789
      3616.18       1.9237522    0.0040392575
      3619.79       1.9045708    0.0040474508
      3623.41       1.8891755    0.0040570592
      3627.04       1.8772789    0.0040667387
      3630.66       1.8633022    0.0040533276
      3634.29       1.8520203    0.0040834063
      3637.93       1.8454358    0.0040692526
      3641.57       1.8427295    0.0040783989
      3645.21       1.8418448    0.0041081543
      3648.86       1.8421684    0.0040933251
      3652.50       1.8422987    0.0041017367
      3656.16       1.8423488    0.0041101648
      3659.81       1.8435743    0.0041154910
      3663.47       1.8442899    0.0041231416
      3667.14       1.8418541    0.0041307090
      3670.80       1.8364896    0.0041148669
      3674.48       1.8296012    0.0041423763
      3678.15       1.8230168    0.0041490444
      3681.83       1.8151496    0.0041326162
      3685.51       1.8059192    0.0041384391
      3689.20       1.7958495    0.0041651556
      3692.88       1.7871194    0.0041482682
      3696.58       1.7795194    0.0041531050
      3700.27       1.7687282    0.0041577960
      3703.98       1.7625195    0.0041622829
      3707.68       1.7558355    0.0041655202
      3711.39       1.7476857    0.0041690796
      3715.10       1.7403500    0.0041724844
      3718.81       1.7398775    0.0041530253
      3722.53       1.7408073    0.0041560137
      3726.26       1.7434873    0.0041587629
      3729.98       1.7459391    0.0041822051
      3733.71       1.7455432    0.0041614306
      3737.45       1.7472650    0.0041629542
      3741.18       1.7465559    0.0041640886
      3744.93       1.7446437    0.0041649859
      3748.67       1.7408408    0.0041432499
      3752.42       1.7357923    0.0041430364
      3756.17       1.7290138    0.0041637530
      3759.93       1.7166248    0.0041629922
      3763.69       1.7054496    0.0041404448
      3767.45       1.6989343    0.0041385741
      3771.22       1.6894029    0.0041363941
      3774.99       1.6792407    0.0041338033
      3778.77       1.6652043    0.0041308294
      3782.54       1.6521683    0.0041061292
      3786.33       1.6384405    0.0041025763
      3790.11       1.6278806    0.0041198953
      3793.90       1.6136600    0.0041150559
      3797.70       1.5974223    0.0041097291
      3801.50       1.5882638    0.0041040542
      3805.30       1.5798779    0.0040770544
      3809.10       1.5746582    0.0040705542
      3812.91       1.5683199    0.0040635585
      3816.73       1.5600904    0.0040561059
      3820.54       1.5531109    0.0040481274
      3824.36       1.5463118    0.0041300114
      3828.19       1.5401228    0.0042403391
      3832.02       1.5340077    0.0044216432
      3835.85       1.5348210    0.0041908008
      3839.68       1.5388397    0.0040536909
      3843.52       1.5440210    0.0041706485
      3847.37       1.5485868    0.0044732649
      3851.22       1.5529541    0.0048553557
      3855.07       1.5584093    0.0055339711
      3858.92       1.5651284    0.0053048910
      3862.78       1.5678167    0.0054658551
      3866.64       1.5710625    0.0057597021
      3870.51       1.5736016    0.0059955972
      3874.38       1.5913450    0.0059872965
      3878.26       1.6015692    0.0059960420
      3882.13       1.6085330    0.0059426174
      3886.02       1.6199642    0.0056753383
      3889.90       1.6305380    0.0054791586
      3893.79       1.6411147    0.0052304440
      3897.69       1.6492391    0.0053184702
      3901.59       1.6646100    0.0045877177
      3905.49       1.6767722    0.0042338881
      3909.39       1.6858893    0.0040964515
      3913.30       1.6941531    0.0040394865
      3917.22       1.7061082    0.0041585475
      3921.13       1.7252900    0.0046024304
      3925.06       1.7343710    0.0044631307
      3928.98       1.7420755    0.0043521990
      3932.91       1.7395903    0.0042393756
      3936.84       1.7324442    0.0041348089
      3940.78       1.7236038    0.0040302107
      3944.72       1.7131623    0.0039041461
      3948.67       1.6974760    0.0037718791
      3952.61       1.6800979    0.0036470128
      3956.57       1.6639080    0.0035425604
      3960.52       1.6481019    0.0034640778
      3964.48       1.6302818    0.0034799409
      3968.45       1.6054319    0.0036574891
      3972.42       1.5876784    0.0035095225
      3976.39       1.5690561    0.0033998115
      3980.37       1.5492555    0.0033496552
      3984.35       1.5301717    0.0033133406
      3988.33       1.5132056    0.0032949063
      3992.32       1.5024985    0.0032765214
      3996.31       1.4933945    0.0032581441
      4000.31       1.4870247    0.0032398730
      4004.31       1.4829692    0.0032354297
      4008.31       1.4752121    0.0031998521
      4012.32       1.4731204    0.0031817004
      4016.33       1.4708235    0.0031637017
      4020.35       1.4674123    0.0031458399
      4024.37       1.4664417    0.0031281797
      4028.40       1.4694035    0.0030937687
      4032.42       1.4762649    0.0030762937
      4036.46       1.4871020    0.0030590260
      4040.50       1.4973132    0.0030553650
      4044.54       1.5081757    0.0030224283
      4048.58       1.5210008    0.0030056511
      4052.63       1.5298189    0.0029891786
      4056.68       1.5374797    0.0030244527
      4060.74       1.5461244    0.0031054773
      4064.80       1.5543366    0.0032239955
      4068.86       1.5668705    0.0030145314
      4072.93       1.5735744    0.0029501981
      4077.01       1.5818632    0.0029773289
      4081.08       1.5883416    0.0030558544
      4085.17       1.5923073    0.0031496773
      4089.25       1.5982076    0.0032453775
      4093.34       1.5963931    0.0033266744
      4097.43       1.5900063    0.0033811536
      4101.53       1.5879096    0.0033554120
      4105.63       1.5850385    0.0032854382
      4109.74       1.5841848    0.0032064259
      4113.85       1.5856714    0.0030700418
      4117.96       1.5836177    0.0029550125
      4122.08       1.5808142    0.0028500219
      4126.20       1.5793116    0.0027717919
      4130.33       1.5750363    0.0027348092
      4134.46       1.5688415    0.0028174615
      4138.59       1.5631984    0.0028816323
      4142.73       1.5580298    0.0027707310
      4146.88       1.5507951    0.0026905374
      4151.02       1.5402057    0.0026452376
      4155.18       1.5310381    0.0026384867
      4159.33       1.5240272    0.0026308612
      4163.49       1.5166375    0.0026248009
      4167.65       1.5084738    0.0026192765
      4171.82       1.4975794    0.0026129754
      4175.99       1.4868438    0.0026081237
      4180.17       1.4788443    0.0025911458
      4184.35       1.4691352    0.0025987524
      4188.54       1.4603263    0.0025950390
      4192.72       1.4528894    0.0025792734
      4196.92       1.4444682    0.0025880629
      4201.11       1.4357436    0.0025732069
      4205.31       1.4277706    0.0025706279
      4209.52       1.4179337    0.0025685997
      4213.73       1.4070930    0.0025666005
      4217.94       1.3948898    0.0025533625
      4222.16       1.3851317    0.0025639229
      4226.38       1.3703580    0.0025512625
      4230.61       1.3560507    0.0025506878
      4234.84       1.3436550    0.0025503494
      4239.08       1.3354567    0.0025502470
      4243.32       1.3235385    0.0025505958
      4247.56       1.3140104    0.0025509167
      4251.81       1.3076626    0.0025400040
      4256.06       1.3040488    0.0025525869
      4260.32       1.3027530    0.0025422095
      4264.58       1.2993559    0.0025552299
      4268.84       1.2960092    0.0025453019
      4273.11       1.2940882    0.0025467139
      4277.38       1.2923438    0.0025491910
      4281.66       1.2892519    0.0025509824
      4285.94       1.2850370    0.0025538302
      4290.23       1.2792905    0.0025793015
      4294.52       1.2736492    0.0026626827
      4298.81       1.2656094    0.0027628606
      4303.11       1.2558566    0.0026389077
      4307.42       1.2431067    0.0025785828
      4311.72       1.2319935    0.0026310418
      4316.04       1.2227186    0.0027281034
      4320.35       1.2143876    0.0029074997
      4324.67       1.2038330    0.0031708955
      4329.00       1.1975417    0.0030745855
      4333.33       1.1948677    0.0031684383
      4337.66       1.1950438    0.0032646809
      4342.00       1.1964673    0.0033398151
      4346.34       1.1949331    0.0034792305
      4350.69       1.1969997    0.0034636887
      4355.04       1.2011035    0.0034085614
      4359.39       1.2061405    0.0033094772
      4363.75       1.2138430    0.0032169623
      4368.12       1.2209667    0.0030882560
      4372.48       1.2264197    0.0031173172
      4376.86       1.2380180    0.0030937066
      4381.23       1.2444959    0.0028745461
      4385.61       1.2522225    0.0027268195
      4390.00       1.2592700    0.0026392193
      4394.39       1.2648498    0.0026235666
      4398.79       1.2727107    0.0026781339
      4403.18       1.2808026    0.0027799865
      4407.59       1.2856960    0.0026839924
      4412.00       1.2884539    0.0026184472
      4416.41       1.2893124    0.0026214967
      4420.82       1.2883852    0.0026125037
      4425.25       1.2890358    0.0026154669
      4429.67       1.2833816    0.0026293397
      4434.10       1.2802771    0.0026198562
