# starting wavelength =        2960.2026
# ending wavelength =        8576.2400
# O2 telluric scale =       0.49007877
# O2 telluric shift =        2.2956977
# H2O telluric scale =       0.14017167
# H2O telluric shift =        3.2029772
      2960.94       3.3879103     0.011920452
      2963.90       3.3602052     0.011248119
      2966.87       3.3413782     0.010607916
      2969.84       3.3280128     0.010071772
      2972.81       3.3121664    0.0096399894
      2975.78       3.2967796    0.0092517692
      2978.76       3.2809982    0.0089097356
      2981.73       3.2707313    0.0086642874
      2984.72       3.2696567    0.0083877174
      2987.70       3.2680321    0.0081368849
      2990.69       3.2611433    0.0079628391
      2993.68       3.2572392    0.0077706712
      2996.67       3.2544639    0.0075853419
      2999.67       3.2539398    0.0074063929
      3002.67       3.2558666    0.0072802734
      3005.67       3.2557451    0.0071083541
      3008.68       3.2587537    0.0069465434
      3011.69       3.2605577    0.0068333584
      3014.70       3.2629629    0.0066824057
      3017.71       3.2678732    0.0065374763
      3020.73       3.2734650    0.0063982887
      3023.75       3.2766785    0.0063102962
      3026.78       3.2789141    0.0061813017
      3029.80       3.2807400    0.0060577863
      3032.83       3.2811022    0.0059396587
      3035.87       3.2806598    0.0058616490
      3038.90       3.2762472    0.0057526692
      3041.94       3.2720205    0.0056487377
      3044.98       3.2705722    0.0055498006
      3048.03       3.2743017    0.0054858646
      3051.08       3.2825683    0.0053955004
      3054.13       3.2887393    0.0053098932
      3057.18       3.2925506    0.0052287659
      3060.24       3.3002594    0.0051521349
      3063.30       3.3069787    0.0051065196
      3066.36       3.3085774    0.0050374748
      3069.43       3.3068830    0.0049726070
      3072.50       3.3063377    0.0049118071
      3075.57       3.3090093    0.0048784704
      3078.65       3.3106994    0.0048247862
      3081.73       3.3120703    0.0047860196
      3084.81       3.3149640    0.0047401421
      3087.89       3.3143265    0.0046978940
      3090.98       3.3154294    0.0046591378
      3094.07       3.3158589    0.0046439605
      3097.17       3.3127587    0.0046114244
      3100.26       3.3107104    0.0045821271
      3103.36       3.3086981    0.0045559875
      3106.47       3.3058384    0.0045463505
      3109.58       3.3009224    0.0045448001
      3112.68       3.2964017    0.0045275080
      3115.80       3.2925854    0.0045131073
      3118.91       3.2856965    0.0045014461
      3122.03       3.2795448    0.0044924770
      3125.15       3.2708508    0.0044860552
      3128.28       3.2581152    0.0044980830
      3131.41       3.2458579    0.0045131187
      3134.54       3.2306419    0.0045140362
      3137.67       3.2144776    0.0045172118
      3140.81       3.1986059    0.0045225293
      3143.95       3.1850499    0.0045299303
      3147.10       3.1745048    0.0045576204
      3150.24       3.1659780    0.0045693139
      3153.39       3.1568557    0.0045980180
      3156.55       3.1447461    0.0046131401
      3159.70       3.1307278    0.0046376883
      3162.86       3.1161283    0.0046684480
      3166.03       3.0996868    0.0046885983
      3169.19       3.0836360    0.0047101276
      3172.36       3.0702631    0.0047328908
      3175.54       3.0603199    0.0047787209
      3178.71       3.0529222    0.0048039416
      3181.89       3.0460872    0.0048301329
      3185.07       3.0367742    0.0048727852
      3188.26       3.0278264    0.0049236330
      3191.45       3.0268720    0.0049525336
      3194.64       3.0231102    0.0049820788
      3197.83       3.0149813    0.0050120162
      3201.03       3.0104270    0.0050666456
      3204.23       3.0037254    0.0050974979
      3207.44       2.9949469    0.0051285032
      3210.64       2.9862913    0.0051595820
      3213.85       2.9778906    0.0052156652
      3217.07       2.9678155    0.0052464596
      3220.28       2.9606237    0.0052769683
      3223.51       2.9516031    0.0053328499
      3226.73       2.9449695    0.0053625966
      3229.96       2.9328618    0.0053917117
      3233.19       2.9222515    0.0054466236
      3236.42       2.9179004    0.0054739970
      3239.66       2.9112552    0.0055004711
      3242.90       2.9054989    0.0055526112
      3246.14       2.9037259    0.0055770411
      3249.39       2.9011074    0.0056002862
      3252.64       2.8948849    0.0056492884
      3255.89       2.8923052    0.0056696092
      3259.14       2.8948658    0.0056886190
      3262.40       2.9003383    0.0057331999
      3265.67       2.9079837    0.0057493752
      3268.93       2.9200569    0.0057640748
      3272.20       2.9355524    0.0058041232
      3275.47       2.9475084    0.0058155959
      3278.75       2.9638572    0.0058526355
      3282.03       2.9814881    0.0058612146
      3285.31       2.9939854    0.0058685318
      3288.60       3.0026640    0.0059009898
      3291.88       3.0148271    0.0059050668
      3295.18       3.0247845    0.0059346548
      3298.47       3.0341004    0.0059360032
      3301.77       3.0459731    0.0059362537
      3305.07       3.0597817    0.0059612453
      3308.38       3.0742140    0.0059584331
      3311.69       3.0891254    0.0059809913
      3315.00       3.0995579    0.0059758510
      3318.31       3.1060949    0.0059954783
      3321.63       3.1132701    0.0059874705
      3324.95       3.1154531    0.0060050381
      3328.28       3.1093826    0.0059950157
      3331.61       3.1064736    0.0060097269
      3334.94       3.0984341    0.0059969814
      3338.27       3.0860171    0.0059834052
      3341.61       3.0737343    0.0059657878
      3344.95       3.0543708    0.0059496629
      3348.30       3.0290357    0.0059584251
      3351.65       3.0040275    0.0059405915
      3355.00       2.9784240    0.0059469953
      3358.35       2.9525122    0.0059268112
      3361.71       2.9269884    0.0059316885
      3365.07       2.9052930    0.0059101725
      3368.44       2.8820417    0.0059123487
      3371.81       2.8644697    0.0058887471
      3375.18       2.8506724    0.0058591847
      3378.56       2.8417172    0.0058589426
      3381.94       2.8399454    0.0058328048
      3385.32       2.8422588    0.0058310162
      3388.70       2.8498216    0.0058029311
      3392.09       2.8611206    0.0057998793
      3395.48       2.8718037    0.0057711462
      3398.88       2.8877120    0.0057341952
      3402.28       2.9029413    0.0057039074
      3405.68       2.9195390    0.0056972288
      3409.09       2.9369259    0.0056903283
      3412.49       2.9458877    0.0056584197
      3415.91       2.9514539    0.0056500024
      3419.32       2.9568471    0.0056168363
      3422.74       2.9508068    0.0055759502
      3426.17       2.9375698    0.0055661844
      3429.59       2.9251146    0.0055317992
      3433.02       2.9080578    0.0055209255
      3436.45       2.8914036    0.0054855907
      3439.89       2.8732856    0.0054422935
      3443.33       2.8537440    0.0054302320
      3446.78       2.8354121    0.0053943926
      3450.22       2.8154180    0.0053816526
      3453.67       2.7946351    0.0053694823
      3457.13       2.7738193    0.0053004336
      3460.58       2.7554160    0.0052874846
      3464.04       2.7413174    0.0052746452
      3467.51       2.7282494    0.0052374295
      3470.98       2.7163974    0.0052249492
      3474.45       2.7059988    0.0051792020
      3477.92       2.7005502    0.0051425262
      3481.40       2.6958206    0.0051289949
      3484.88       2.6909046    0.0051163182
      3488.37       2.6940377    0.0050472393
      3491.86       2.6973657    0.0050346026
      3495.35       2.6966098    0.0050218880
      3498.84       2.6969828    0.0050099975
      3502.34       2.6958114    0.0049421613
      3505.84       2.6972718    0.0049067633
      3509.35       2.7003465    0.0048643344
      3512.86       2.7027585    0.0048299115
      3516.37       2.7126979    0.0047885925
      3519.89       2.7188052    0.0047255730
      3523.41       2.7221781    0.0047153437
      3526.93       2.7269989    0.0046540531
      3530.46       2.7305550    0.0046446970
      3533.99       2.7316354    0.0045853611
      3537.53       2.7301218    0.0045770661
      3541.06       2.7241909    0.0045199245
      3544.60       2.7172669    0.0044851861
      3548.15       2.7118144    0.0044579260
      3551.70       2.6989526    0.0044250587
      3555.25       2.6832705    0.0043995981
      3558.80       2.6626125    0.0043686036
      3562.36       2.6414929    0.0043179501
      3565.92       2.6172552    0.0043156558
      3569.49       2.5938332    0.0042668569
      3573.06       2.5717272    0.0042406957
      3576.64       2.5493300    0.0042190593
      3580.21       2.5258888    0.0041946122
      3583.79       2.5030639    0.0041747727
      3587.38       2.4753837    0.0041519446
      3590.96       2.4486681    0.0041305512
      3594.55       2.4285307    0.0041127817
      3598.15       2.4083181    0.0040929489
      3601.75       2.3922199    0.0040536008
      3605.35       2.3779717    0.0040586437
      3608.96       2.3659966    0.0040213846
      3612.56       2.3553440    0.0040046098
      3616.18       2.3457171    0.0040117185
      3619.79       2.3355304    0.0039766938
      3623.41       2.3283997    0.0039624506
      3627.04       2.3255738    0.0039517934
      3630.66       2.3275392    0.0039388307
      3634.29       2.3301682    0.0039270296
      3637.93       2.3314890    0.0038961963
      3641.57       2.3325996    0.0039076932
      3645.21       2.3342468    0.0038779722
      3648.86       2.3365704    0.0038695669
      3652.50       2.3385074    0.0038829609
      3656.16       2.3422655    0.0038553200
      3659.81       2.3488928    0.0038488752
      3663.47       2.3555191    0.0038432831
      3667.14       2.3566254    0.0038381604
      3670.80       2.3564662    0.0038335062
      3674.48       2.3550055    0.0038298052
      3678.15       2.3540671    0.0038063767
      3681.83       2.3531052    0.0038236278
      3685.51       2.3520781    0.0038215892
      3689.20       2.3532042    0.0038001342
      3692.88       2.3562264    0.0037990968
      3696.58       2.3624646    0.0037988630
      3700.27       2.3661310    0.0037990143
      3703.98       2.3713179    0.0037994906
      3707.68       2.3760845    0.0038006274
      3711.39       2.3814733    0.0038024129
      3715.10       2.3880781    0.0037844208
      3718.81       2.3973204    0.0038065332
      3722.53       2.4073555    0.0038096279
      3726.26       2.4122233    0.0037926523
      3729.98       2.4137759    0.0037969241
      3733.71       2.4086716    0.0038017193
      3737.45       2.3970135    0.0038258632
      3741.18       2.3812463    0.0038103497
      3744.93       2.3629905    0.0038161959
      3748.67       2.3425071    0.0038225146
      3752.42       2.3209413    0.0038292761
      3756.17       2.2981610    0.0038154502
      3759.93       2.2729154    0.0038225489
      3763.69       2.2503313    0.0038300672
      3767.45       2.2323669    0.0038566778
      3771.22       2.2152699    0.0038444405
      3774.99       2.1991307    0.0038527331
      3778.77       2.1835535    0.0038614361
      3782.54       2.1673716    0.0038703888
      3786.33       2.1521005    0.0038796599
      3790.11       2.1416737    0.0038680908
      3793.90       2.1314238    0.0038778159
      3797.70       2.1132896    0.0038878153
      3801.50       2.1008704    0.0038980653
      3805.30       2.0932194    0.0039270519
      3809.10       2.0855857    0.0039374898
      3812.91       2.0727451    0.0039264581
      3816.73       2.0630063    0.0039372268
      3820.54       2.0559772    0.0039481720
      3824.36       2.0514383    0.0039592503
      3828.19       2.0482709    0.0040319906
      3832.02       2.0477909    0.0041611681
      3835.85       2.0584866    0.0041882294
      3839.68       2.0770720    0.0040101469
      3843.52       2.0913301    0.0040295435
      3847.37       2.1074764    0.0041147394
      3851.22       2.1238232    0.0042323314
      3855.07       2.1348900    0.0043648885
      3858.92       2.1460037    0.0044967278
      3862.78       2.1550164    0.0046113443
      3866.64       2.1628770    0.0046929042
      3870.51       2.1681537    0.0047206604
      3874.38       2.1836192    0.0046727547
      3878.26       2.1934563    0.0045574649
      3882.13       2.1944719    0.0044542762
      3886.02       2.1885805    0.0043436634
      3889.90       2.1844959    0.0042422095
      3893.79       2.1811979    0.0041680834
      3897.69       2.1746185    0.0041522035
      3901.59       2.1640205    0.0042976902
      3905.49       2.1541474    0.0043930582
      3909.39       2.1415134    0.0042622547
      3913.30       2.1270713    0.0041760642
      3917.22       2.1135268    0.0041868832
      3921.13       2.0996060    0.0041781786
      3925.06       2.0786845    0.0041886727
      3928.98       2.0521265    0.0041991361
      3932.91       2.0262616    0.0042093319
      3936.84       2.0022982    0.0042194054
      3940.78       1.9829180    0.0042293873
      3944.72       1.9606213    0.0042391274
      3948.67       1.9394731    0.0042487966
      3952.61       1.9191387    0.0042583090
      3956.57       1.9016229    0.0042676988
      3960.52       1.8867773    0.0042570193
      3964.48       1.8750778    0.0042658703
      3968.45       1.8664951    0.0042744783
      3972.42       1.8561522    0.0042829524
      3976.39       1.8471557    0.0042910822
      3980.37       1.8424283    0.0042990316
      3984.35       1.8406895    0.0043067999
      3988.33       1.8445806    0.0042944524
      3992.32       1.8517148    0.0043017463
      3996.31       1.8567918    0.0043087748
      4000.31       1.8609166    0.0043157189
      4004.31       1.8691561    0.0043440304
      4008.31       1.8774084    0.0043502441
      4012.32       1.8861161    0.0043358295
      4016.33       1.8947396    0.0043414652
      4020.35       1.9020853    0.0043468247
      4024.37       1.9119445    0.0043518735
      4028.40       1.9208710    0.0043566942
      4032.42       1.9332003    0.0043402001
      4036.46       1.9428060    0.0043440494
      4040.50       1.9531150    0.0043694885
      4044.54       1.9600352    0.0043729061
      4048.58       1.9621378    0.0043553326
      4052.63       1.9601867    0.0043577231
      4056.68       1.9567755    0.0043597505
      4060.74       1.9526427    0.0044511303
      4064.80       1.9486914    0.0045995535
      4068.86       1.9361987    0.0043937698
      4072.93       1.9219421    0.0043723133
      4077.01       1.9095213    0.0044206031
      4081.08       1.8964360    0.0044828719
      4085.17       1.8791801    0.0045793529
      4089.25       1.8607079    0.0046775644
      4093.34       1.8421876    0.0047683314
      4097.43       1.8270784    0.0048309782
      4101.53       1.8130129    0.0048627580
      4105.63       1.7959576    0.0047981170
      4109.74       1.7838114    0.0047321073
      4113.85       1.7757317    0.0046692675
      4117.96       1.7691927    0.0045383070
      4122.08       1.7606171    0.0044378764
      4126.20       1.7500019    0.0043498093
      4130.33       1.7381117    0.0042957808
      4134.46       1.7236059    0.0042981888
      4138.59       1.7077921    0.0044437471
      4142.73       1.6882806    0.0043696307
      4146.88       1.6675908    0.0042507983
      4151.02       1.6455675    0.0042419089
      4155.18       1.6227204    0.0042121645
      4159.33       1.5961639    0.0042026285
      4163.49       1.5689340    0.0041905909
      4167.65       1.5434851    0.0041799120
      4171.82       1.5190288    0.0041689276
      4175.99       1.4971708    0.0041550981
      4180.17       1.4774403    0.0041431130
      4184.35       1.4591944    0.0041103650
      4188.54       1.4472563    0.0041156212
      4192.72       1.4415353    0.0041023730
      4196.92       1.4406184    0.0040682647
      4201.11       1.4428132    0.0040541587
      4205.31       1.4500344    0.0040374208
      4209.52       1.4570980    0.0040223732
      4213.73       1.4646120    0.0040049281
      4217.94       1.4683255    0.0039889846
      4222.16       1.4709826    0.0039534694
      4226.38       1.4724108    0.0039542659
      4230.61       1.4691452    0.0039181660
      4234.84       1.4671596    0.0039016082
      4239.08       1.4656068    0.0039009047
      4243.32       1.4658402    0.0038642111
      4247.56       1.4655705    0.0038470427
      4251.81       1.4653268    0.0038256980
      4256.06       1.4659732    0.0038078965
      4260.32       1.4653173    0.0037859622
      4264.58       1.4664950    0.0037485399
      4268.84       1.4671536    0.0037453695
      4273.11       1.4688644    0.0037078429
      4277.38       1.4739807    0.0036885671
      4281.66       1.4789563    0.0036661902
      4285.94       1.4836656    0.0036466013
      4290.23       1.4856247    0.0036237789
      4294.52       1.4879864    0.0036038576
      4298.81       1.4871474    0.0035807246
      4303.11       1.4912690    0.0035605601
      4307.42       1.4926663    0.0035370821
      4311.72       1.4925473    0.0034990992
      4316.04       1.4952278    0.0034792436
      4320.35       1.4989040    0.0035489094
      4324.67       1.5036817    0.0035265473
      4329.00       1.5103173    0.0034154462
      4333.33       1.5130565    0.0033859118
      4337.66       1.5125994    0.0034144197
      4342.00       1.5109881    0.0034342959
      4346.34       1.5101092    0.0034817511
      4350.69       1.5066737    0.0035000871
      4355.04       1.5013350    0.0035182204
      4359.39       1.4949040    0.0035367109
      4363.75       1.4854790    0.0034960432
      4368.12       1.4780140    0.0034475602
      4372.48       1.4713521    0.0033875825
      4376.86       1.4655443    0.0033128397
      4381.23       1.4597820    0.0032273467
      4385.61       1.4557237    0.0031665502
      4390.00       1.4510529    0.0030948383
      4394.39       1.4450661    0.0030500309
      4398.79       1.4414382    0.0030552807
      4403.18       1.4392136    0.0030895978
      4407.59       1.4353551    0.0030225779
      4412.00       1.4304743    0.0029511810
      4416.41       1.4223885    0.0029440949
      4420.82       1.4146934    0.0029223385
      4425.25       1.4045515    0.0028897435
      4429.67       1.3940170    0.0028830780
      4434.10       1.3800734    0.0028510326
      4438.54       1.3613021    0.0028305418
      4442.97       1.3399835    0.0028104633
      4447.42       1.3184532    0.0027934184
      4451.86       1.2951657    0.0027738136
      4456.32       1.2724589    0.0027546819
      4460.77       1.2517848    0.0027252696
      4465.24       1.2341875    0.0027067318
      4469.70       1.2216757    0.0027017081
      4474.17       1.2137905    0.0026735572
      4478.65       1.2082668    0.0026560152
      4483.12       1.2084157    0.0026388860
      4487.61       1.2119959    0.0026120592
      4492.09       1.2176218    0.0026083658
      4496.59       1.2244357    0.0025923180
      4501.08       1.2307637    0.0025667226
      4505.58       1.2409973    0.0025516612
      4510.09       1.2498561    0.0025370732
      4514.60       1.2577443    0.0025347956
      4519.12       1.2641899    0.0025109124
      4523.63       1.2717437    0.0024974875
      4528.16       1.2817684    0.0024845123
      4532.69       1.2908399    0.0024720414
      4537.22       1.3003584    0.0024503689
      4541.76       1.3104296    0.0024387509
