# starting wavelength =        3664.0200
# ending wavelength =        7427.0400
# O2 telluric scale =        0
# O2 telluric shift =        0
# H2O telluric scale =        0
# H2O telluric shift =        0
      3667.14      0.87327773     0.063503867
      3670.80      0.83507061     0.054015632
      3674.48      0.80216982     0.045114156
      3678.15      0.77303900     0.039482880
      3681.83      0.74596073     0.035063610
      3685.51      0.71706120     0.032255297
      3689.20      0.68874403     0.029447584
      3692.88      0.66414959     0.027273288
      3696.58      0.64589262     0.025587039
      3700.27      0.61475842     0.024043776
      3703.98      0.59074518     0.023064849
      3707.68      0.57474801     0.022289870
      3711.39      0.55213690     0.021659420
      3715.10      0.54981120     0.021115805
      3718.81      0.54685325     0.020666625
      3722.53      0.53448617     0.020159760
      3726.26      0.51868632     0.019845821
      3729.98      0.50169105     0.019577096
      3733.71      0.49110485     0.019406151
      3737.45      0.48036699     0.019446029
      3741.18      0.47330836     0.019393617
      3744.93      0.45729398     0.019315606
      3748.67      0.44327045     0.019358236
      3752.42      0.42463670     0.019303160
      3756.17      0.43735608     0.019349621
      3759.93      0.43146497     0.019270900
      3763.69      0.42428292     0.019314731
      3767.45      0.41482690     0.019361027
      3771.22      0.41474690     0.019184663
      3774.99      0.39447902     0.019231491
      3778.77      0.37994725     0.019154686
      3782.54      0.38423611     0.019202265
      3786.33      0.41196497     0.019146981
      3790.11      0.44985532     0.019072499
      3793.90      0.48669300     0.019119977
      3797.70      0.52126533     0.019168335
      3801.50      0.54708058     0.018991562
      3805.30      0.57624520     0.019038735
      3809.10      0.61406842     0.019090985
      3812.91      0.64350067     0.019014252
      3816.73      0.67717511     0.019065783
      3820.54      0.71809793     0.019011462
      3824.36      0.76654515     0.018936600
      3828.19      0.80613409     0.018990518
      3832.02      0.85946341     0.019042591
      3835.85      0.90962641     0.018969135
      3839.68      0.95722214     0.019024132
      3843.52      0.99181363     0.018840144
      3847.37       1.0144675     0.018896703
      3851.22       1.0388346     0.018951289
      3855.07       1.0632021     0.018878286
      3858.92       1.0778286     0.018936002
      3862.78       1.0940662     0.018861605
      3866.64       1.1064601     0.018809318
      3870.51       1.1152217     0.018866398
      3874.38       1.1261707     0.018793189
      3878.26       1.1385295     0.018854719
      3882.13       1.1412005     0.018916212
      3886.02       1.1307715     0.018843776
      3889.90       1.1341863     0.018907338
      3893.79       1.1490082     0.018714544
      3897.69       1.1928484     0.018780603
      3901.59       1.2148174     0.018844060
      3905.49       1.2253381     0.018771055
      3909.39       1.2212968     0.018840296
      3913.30       1.2202453     0.018765428
      3917.22       1.2367116     0.018835347
      3921.13       1.2492055     0.018907777
      3925.06       1.2670092     0.018706419
      3928.98       1.2769871     0.018782434
      3932.91       1.2897729     0.018705715
      3936.84       1.3025645     0.018777133
      3940.78       1.3151864     0.018705204
      3944.72       1.3098489     0.018780455
      3948.67       1.3107289     0.018855867
      3952.61       1.3069870     0.018783997
      3956.57       1.3085238     0.018864413
      3960.52       1.3132073     0.018789996
      3964.48       1.3154425     0.018872279
      3968.45       1.3203966     0.018802718
      3972.42       1.3216853     0.018742208
      3976.39       1.3283222     0.018833748
      3980.37       1.3048566     0.018756009
      3984.35       1.2995607     0.018839228
      3988.33       1.2749746     0.018766536
      3992.32       1.2573707     0.018858904
      3996.31       1.2458078     0.018782792
      4000.31       1.2233742     0.018872382
      4004.31       1.2161710     0.018801294
      4008.31       1.2195837     0.018896162
      4012.32       1.2076017     0.018990632
      4016.33       1.1794667     0.018918101
      4020.35       1.1662032     0.019022387
      4024.37       1.1666031     0.018946126
      4028.40       1.1577839     0.019047211
      4032.42       1.1459186     0.018975584
      4036.46       1.1456032     0.019083128
      4040.50       1.1468346     0.019007397
      4044.54       1.1512436     0.019115588
      4048.58       1.1422489     0.018881757
      4052.63       1.1389931     0.018805604
      4056.68       1.1285762     0.018731820
      4060.74       1.1171482     0.018660336
      4064.80       1.1027136     0.018608261
      4068.86       1.1014358     0.018533710
      4072.93       1.0906165     0.018461145
      4077.01       1.0805217     0.018231571
      4081.08       1.0791595     0.018339768
      4085.17       1.0711096     0.018265688
      4089.25       1.0712832     0.018193430
      4093.34       1.0712164     0.017966612
      4097.43       1.0715950     0.017899423
      4101.53       1.0818460     0.018001272
      4105.63       1.0762691     0.017930231
      4109.74       1.0792435     0.017706754
      4113.85       1.0762416     0.017639848
      4117.96       1.0807954     0.017574706
      4122.08       1.0962329     0.017673075
      4126.20       1.0985329     0.017451864
      4130.33       1.1022071     0.017384871
      4134.46       1.1055530     0.017319475
      4138.59       1.1111077     0.017255271
      4142.73       1.1248964     0.017043253
      4146.88       1.1214866     0.017133658
      4151.02       1.1107581     0.017067954
      4155.18       1.1171438     0.017003911
      4159.33       1.1276510     0.016941048
      4163.49       1.1261545     0.016734207
      4167.65       1.1249418     0.016669309
      4171.82       1.1369410     0.016758867
      4175.99       1.1430137     0.016695553
      4180.17       1.1342070     0.016633424
      4184.35       1.1375484     0.016432778
      4188.54       1.1425533     0.016368375
      4192.72       1.1449890     0.016305120
      4196.92       1.1524451     0.016242619
      4201.11       1.1607452     0.016330789
      4205.31       1.1632786     0.016138301
      4209.52       1.1631106     0.016074785
      4213.73       1.1588453     0.016012019
      4217.94       1.1681075     0.015950414
      4222.16       1.1734072     0.015889736
      4226.38       1.1647792     0.015829924
      4230.61       1.1569441     0.015639091
      4234.84       1.1572278     0.015580700
      4239.08       1.1481865     0.015667191
      4243.32       1.1535600     0.015606434
      4247.56       1.1452684     0.015546181
      4251.81       1.1520392     0.015487059
      4256.06       1.1402815     0.015300016
      4260.32       1.1217707     0.015242649
      4264.58       1.1081832     0.015185701
      4268.84       1.0855761     0.015129576
      4273.11       1.0623916     0.015074197
      4277.38       1.0441663     0.015019359
      4281.66       1.0337536     0.014964780
      4285.94       1.0241959     0.014916318
      4290.23       1.0109129     0.014860257
      4294.52      0.99129093     0.014804380
      4298.81      0.99043849     0.014748846
      4303.11      0.98031804     0.014694098
      4307.42      0.97298050     0.014639961
      4311.72      0.95656678     0.014586080
      4316.04      0.95792189     0.014532504
      4320.35      0.96898591     0.014363402
      4324.67      0.98286956     0.014309564
      4329.00      0.98547483     0.014256227
      4333.33      0.98270601     0.014203100
      4337.66      0.98125323     0.014150397
      4342.00      0.98227743     0.014098156
      4346.34      0.97266812     0.014046131
      4350.69      0.96577123     0.013994252
      4355.04      0.95420502     0.013942765
      4359.39      0.96018881     0.013891662
      4363.75      0.96752705     0.013841046
      4368.12      0.96251851     0.013790585
      4372.48      0.95486904     0.013629708
      4376.86      0.94409099     0.013580444
      4381.23      0.94375455     0.013531515
      4385.61      0.95061197     0.013482646
      4390.00      0.95508476     0.013434126
      4394.39      0.96133407     0.013385659
      4398.79      0.96549219     0.013337539
      4403.18      0.98069906     0.013289530
      4407.59      0.98998841     0.013241817
      4412.00       1.0068415     0.013194122
      4416.41       1.0220219     0.013147052
      4420.82       1.0427346     0.013100101
      4425.25       1.0586041     0.013053299
      4429.67       1.0747786     0.013007068
      4434.10       1.1033559     0.012960838
      4438.54       1.1207386     0.012914931
      4442.97       1.1521181     0.012869082
      4447.42       1.1701306     0.012823528
      4451.86       1.1811383     0.012778040
      4456.32       1.2007186     0.012732843
      4460.77       1.2253369     0.012687730
      4465.24       1.2470170     0.012642897
      4469.70       1.2675082     0.012598441
      4474.17       1.2870616     0.012554351
      4478.65       1.3002046     0.012510419
      4483.12       1.3050356     0.012466806
      4487.61       1.3179436     0.012423522
      4492.09       1.3256832     0.012380282
      4496.59       1.3344589     0.012337398
      4501.08       1.3411437     0.012189646
      4505.58       1.3473335     0.012147670
      4510.09       1.3612431     0.012105816
      4514.60       1.3737024     0.012064080
      4519.12       1.3941575     0.012022964
      4523.63       1.4098334     0.011982066
      4528.16       1.4248871     0.011941583
      4532.69       1.4285808     0.011901529
      4537.22       1.4387267     0.011861614
      4541.76       1.4518982     0.011822111
      4546.30       1.4578766     0.011783025
      4550.85       1.4591135     0.011643529
      4555.40       1.4603615     0.011603970
      4559.95       1.4744021     0.011564625
      4564.51       1.4803645     0.011525848
      4569.08       1.4748953     0.011487295
      4573.65       1.4773057     0.011449210
      4578.22       1.4798800     0.011411404
      4582.80       1.4790006     0.011374126
      4587.38       1.4681032     0.011243799
      4591.97       1.4665468     0.011207741
      4596.56       1.4731000     0.011257760
      4601.16       1.4777435     0.011220387
      4605.76       1.4820513     0.011183289
      4610.37       1.4893294     0.011146877
      4614.98       1.4912566     0.011110786
      4619.59       1.4849689     0.010983768
      4624.21       1.4852521     0.010948904
      4628.84       1.4762879     0.010914624
      4633.47       1.4606875     0.010880844
      4638.10       1.4445032     0.010847644
      4642.74       1.4294385     0.010894284
      4647.38       1.4163122     0.010770263
      4652.03       1.3974607     0.010736420
      4656.68       1.3658276     0.010703194
      4661.34       1.3385740     0.010670585
      4666.00       1.3073444     0.010638451
      4670.67       1.2658031     0.010606801
      4675.33       1.2291197     0.010484839
      4680.01       1.1924044     0.010452748
      4684.69       1.1597754     0.010500894
      4689.38       1.1342484     0.010469617
      4694.07       1.1051927     0.010439073
      4698.76       1.0816030     0.010321600
      4703.46       1.0597445     0.010290159
      4708.16       1.0278830     0.010259210
      4712.87       1.0088831     0.010307535
      4717.58      0.97968877     0.010194907
      4722.30      0.95862869     0.010163594
      4727.03      0.93959779     0.010132938
      4731.75      0.92218261     0.010103066
      4736.48      0.90979656     0.010074065
      4741.22      0.90231148     0.010041612
      4745.96      0.88420655     0.010011502
      4750.71      0.87020882    0.0099820873
      4755.46      0.86739603    0.0099535076
      4760.22      0.86027719    0.0098468302
      4764.97      0.85460004    0.0098199324
      4769.74      0.84907763    0.0098646198
      4774.51      0.85042736    0.0098365239
      4779.29      0.85186194    0.0097314726
      4784.07      0.84752649    0.0097052819
      4788.85      0.84126782    0.0096801897
      4793.64      0.83805019    0.0096465293
      4798.43      0.83674298    0.0096202264
      4803.23      0.83775404    0.0095949541
      4808.03      0.83426741    0.0095707212
      4812.84      0.83649921    0.0095381974
      4817.66      0.83577709    0.0095128424
      4822.48      0.83493738    0.0094883837
      4827.30      0.83982270    0.0093884055
      4832.12      0.85543258    0.0093632847
      4836.96      0.86446613    0.0094088942
      4841.79      0.88307986    0.0093858317
      4846.63      0.90726509    0.0092870759
      4851.48      0.93186495    0.0092629818
      4856.33      0.95921468    0.0093092110
      4861.19      0.99163965    0.0092128967
      4866.05       1.0212946    0.0091890670
      4870.92       1.0530987    0.0091663168
      4875.79       1.0836059    0.0091409699
      4880.66       1.1144466    0.0091171523
      4885.55       1.1425726    0.0090945714
      4890.43       1.1736711    0.0090040068
      4895.32       1.1927094    0.0090475448
      4900.22       1.2084116    0.0090255519
      4905.12       1.2222781    0.0089359223
      4910.02       1.2222778    0.0089800791
      4914.94       1.2219352    0.0089583077
      4919.85       1.2131421    0.0088696723
      4924.77       1.1969838    0.0089140739
      4929.70       1.1761136    0.0088250702
      4934.62       1.1548638    0.0088054760
      4939.56       1.1250782    0.0087873354
      4944.50       1.1011232    0.0087624796
      4949.44       1.0752790    0.0087436571
      4954.39       1.0513999    0.0087261830
      4959.35       1.0297198    0.0087017678
      4964.31       1.0104237    0.0086836857
      4969.27      0.99632888    0.0085987317
      4974.24      0.98527282    0.0086429966
      4979.22      0.97732422    0.0086257781
      4984.20      0.97761932    0.0085412028
      4989.18      0.97971876    0.0085860672
      4994.17      0.99178239    0.0085040181
      4999.16       1.0075317    0.0084859619
      5004.16       1.0233982    0.0085315720
      5009.17       1.0408362    0.0084496286
      5014.18       1.0521802    0.0084326783
      5019.19       1.0691015    0.0084146601
      5024.21       1.0903007    0.0083971832
      5029.23       1.1008127    0.0083808616
      5034.26       1.1053860    0.0083629752
      5039.30       1.1227161    0.0083467757
      5044.34       1.1355617    0.0083300045
      5049.39       1.1356543    0.0083135959
      5054.43       1.1461454    0.0082380991
      5059.49       1.1480763    0.0082815173
      5064.55       1.1500142    0.0082059795
      5069.61       1.1526775    0.0082503593
      5074.68       1.1578244    0.0081749623
      5079.76       1.1633015    0.0081619277
      5084.84       1.1701582    0.0081448556
      5089.92       1.1778772    0.0081316016
      5095.01       1.1866416    0.0081157611
      5100.11       1.1895297    0.0081025418
      5105.21       1.1920269    0.0080299289
      5110.31       1.1987656    0.0080744132
      5115.42       1.2100729    0.0080028840
      5120.54       1.2111527    0.0080472035
      5125.66       1.2182128    0.0079765718
      5130.79       1.2187858    0.0080207597
      5135.92       1.2363618    0.0079509382
      5141.05       1.2449203    0.0079378590
      5146.20       1.2515638    0.0079261170
      5151.34       1.2688542    0.0079133168
      5156.49       1.2789532    0.0079020897
      5161.65       1.2856025    0.0078895984
      5166.81       1.3071694    0.0078788749
      5171.98       1.3173456    0.0078665879
      5177.15       1.3303592    0.0078562826
      5182.33       1.3387691    0.0078442746
      5187.51       1.3583721    0.0078343018
      5192.70       1.3671012    0.0078225689
      5197.89       1.3748538    0.0078129599
      5203.09       1.3848282    0.0078018248
      5208.29       1.3904389    0.0077382913
      5213.50       1.3950582    0.0077271666
      5218.72       1.4025686    0.0077191413
      5223.93       1.4097500    0.0077081873
      5229.16       1.4166736    0.0077007153
      5234.39       1.4283766    0.0076898955
      5239.62       1.4268577    0.0076830383
      5244.86       1.4326629    0.0076722808
      5250.11       1.4335551    0.0076634960
      5255.36       1.4345495    0.0076556620
      5260.61       1.4285260    0.0076469539
      5265.87       1.4291965    0.0076399434
      5271.14       1.4290964    0.0076312032
      5276.41       1.4263055    0.0075705930
      5281.69       1.4260714    0.0076162732
      5286.97       1.4288177    0.0075556127
      5292.26       1.4220908    0.0076021720
      5297.55       1.4179623    0.0075413941
      5302.85       1.4061102    0.0075356507
      5308.15       1.4009791    0.0075281115
      5313.46       1.3893289    0.0075222568
      5318.77       1.3793442    0.0075178682
      5324.09       1.3678171    0.0075097577
      5329.42       1.3617933    0.0075050813
      5334.75       1.3515448    0.0074981113
      5340.08       1.3336918    0.0074931400
      5345.42       1.3232730    0.0074367708
      5350.77       1.3106105    0.0074822344
      5356.12       1.2992651    0.0074782120
      5361.48       1.2909827    0.0074218381
      5366.83       1.2868751    0.0074681400
      5372.20       1.2839627    0.0074133213
      5377.58       1.2810959    0.0074086503
      5382.95       1.2820829    0.0074555757
      5388.34       1.2829266    0.0074009654
      5393.72       1.2912647    0.0073970471
      5399.12       1.2901270    0.0073944588
      5404.52       1.2849084    0.0073901077
      5409.92       1.2828158    0.0073868616
      5415.33       1.2712150    0.0073336809
      5420.75       1.2622752    0.0073809255
      5426.17       1.2585865    0.0073272237
      5431.60       1.2570596    0.0073255021
      5437.03       1.2484789    0.0073731622
      5442.47       1.2359435    0.0073198800
      5447.91       1.2312843    0.0073185552
      5453.36       1.2220513    0.0073181945
      5458.81       1.2094570    0.0073140737
      5464.27       1.1963204    0.0073130273
      5469.73       1.1834623    0.0073128924
      5475.20       1.1699954    0.0073096428
      5480.68       1.1668759    0.0073089278
      5486.16       1.1585901    0.0073089992
      5491.65       1.1506480    0.0072590295
      5497.14       1.1400688    0.0073062087
      5502.64       1.1268843    0.0073064368
      5508.14       1.1189989    0.0072577050
      5513.65       1.1092895    0.0072573507
      5519.16       1.1043702    0.0072576884
      5524.68       1.0976447    0.0072578978
      5530.20       1.0927903    0.0072576980
      5535.73       1.0855128    0.0072581360
      5541.27       1.0801860    0.0072591837
      5546.81       1.0676457    0.0072596479
      5552.36       1.0581170    0.0072600958
      5557.91       1.0364845    0.0072611716
      5563.47       1.0135082    0.0072134093
      5569.04      0.98718994    0.0072155158
      5574.60      0.96410968    0.0072649835
      5580.18      0.93883626    0.0072665467
      5585.76      0.91165877    0.0072191640
      5591.35      0.87700884    0.0072216535
      5596.94      0.84556015    0.0072246141
      5602.53      0.81652439    0.0072280147
      5608.14      0.78623804    0.0072270617
      5613.75      0.75908519    0.0072297883
      5619.36      0.73167499    0.0072331037
      5624.98      0.70711539    0.0072367840
      5630.60      0.68440926    0.0071917428
