# starting wavelength =        3468.4900
# ending wavelength =        7370.6700
# O2 telluric scale =        0
# O2 telluric shift =        0
# H2O telluric scale =        0
# H2O telluric shift =        0
      3470.98       1.2179502     0.061708647
      3474.45       1.2506188     0.052471704
      3477.92       1.2741727     0.045118497
      3481.40       1.2995275     0.039292452
      3484.88       1.3185645     0.034710178
      3488.37       1.3342849     0.030516959
      3491.86       1.3456243     0.027887018
      3495.35       1.3623040     0.025851495
      3498.84       1.3798314     0.024277252
      3502.34       1.3849895     0.023222320
      3505.84       1.3928757     0.022190998
      3509.35       1.3947920     0.021370380
      3512.86       1.3984482     0.020710216
      3516.37       1.4044600     0.020170655
      3519.89       1.4100627     0.019581768
      3523.41       1.4023706     0.019210517
      3526.93       1.3978521     0.018892475
      3530.46       1.3946892     0.018617515
      3533.99       1.3866014     0.018344480
      3537.53       1.3701112     0.018374886
      3541.06       1.3588076     0.018312178
      3544.60       1.3427454     0.018344380
      3548.15       1.3275043     0.018164435
      3551.70       1.3158387     0.018195419
      3555.25       1.3146303     0.018226450
      3558.80       1.3090260     0.018164600
      3562.36       1.3061751     0.018079155
      3565.92       1.3043130     0.018017197
      3569.49       1.2899083     0.018050859
      3573.06       1.2899247     0.018082363
      3576.64       1.2888753     0.017903015
      3580.21       1.2909606     0.017935323
      3583.79       1.2883669     0.017970164
      3587.38       1.2839655     0.017788857
      3590.96       1.2832629     0.017822537
      3594.55       1.2801691     0.017858399
      3598.15       1.2866830     0.017796343
      3601.75       1.3000828     0.017712029
      3605.35       1.2985945     0.017649818
      3608.96       1.2999469     0.017687668
      3612.56       1.3103376     0.017722893
      3616.18       1.3117356     0.017541832
      3619.79       1.3184126     0.017576815
      3623.41       1.3089191     0.017616298
      3627.04       1.3007292     0.017431788
      3630.66       1.2888919     0.017470411
      3634.29       1.2788181     0.017508470
      3637.93       1.2504826     0.017448243
      3641.57       1.2229865     0.017363352
      3645.21       1.1957943     0.017404077
      3648.86       1.1625796     0.017445140
      3652.50       1.1121478     0.017259579
      3656.16       1.0749364     0.017299757
      3659.81       1.0362671     0.017342905
      3663.47      0.99271028     0.017155558
      3667.14      0.95035533     0.017198518
      3670.80      0.91036578     0.017240987
      3674.48      0.86578188     0.017054351
      3678.15      0.82543897     0.017096530
      3681.83      0.79376653     0.017142861
      3685.51      0.77367339     0.017187622
      3689.20      0.74693610     0.016998680
      3692.88      0.73155040     0.017042800
      3696.58      0.71112230     0.017092861
      3700.27      0.70768758     0.017007514
      3703.98      0.70569826     0.016949066
      3707.68      0.71550574     0.016994896
      3711.39      0.71950070     0.016913372
      3715.10      0.71772996     0.016962558
      3718.81      0.71555832     0.016905764
      3722.53      0.71604806     0.016818799
      3726.26      0.72493228     0.016870082
      3729.98      0.72650481     0.016924341
      3733.71      0.72687450     0.016726507
      3737.45      0.72805916     0.016781247
      3741.18      0.73799713     0.016833566
      3744.93      0.74143516     0.016752755
      3748.67      0.74897316     0.016690061
      3752.42      0.75173557     0.016608902
      3756.17      0.75608453     0.016664562
      3759.93      0.76548478     0.016721557
      3763.69      0.77766727     0.016642971
      3767.45      0.79103861     0.016578305
      3771.22      0.81338800     0.016640914
      3774.99      0.84306234     0.016555275
      3778.77      0.87477525     0.016616997
      3782.54      0.90745914     0.016681495
      3786.33      0.95619134     0.016472966
      3790.11      0.99396621     0.016538551
      3793.90       1.0338049     0.016454069
      3797.70       1.0759293     0.016520060
      3801.50       1.1081397     0.016587535
      3805.30       1.1393446     0.016375155
      3809.10       1.1783964     0.016445087
      3812.91       1.2132045     0.016510956
      3816.73       1.2512725     0.016430166
      3820.54       1.2864572     0.016502073
      3824.36       1.3258978     0.016419002
      3828.19       1.3648094     0.016360453
      3832.02       1.3921702     0.016429375
      3835.85       1.4177884     0.016348311
      3839.68       1.4382283     0.016426407
      3843.52       1.4640985     0.016341825
      3847.37       1.4858327     0.016421090
      3851.22       1.5096868     0.016503301
      3855.07       1.5376372     0.016274962
      3858.92       1.5580450     0.016360651
      3862.78       1.5790666     0.016274705
      3866.64       1.5988346     0.016193704
      3870.51       1.6177697     0.016134452
      3874.38       1.6250319     0.016049682
      3878.26       1.6293842     0.015828958
      3882.13       1.6338128     0.015910622
      3886.02       1.6357307     0.015827804
      3889.90       1.6310060     0.015609623
      3893.79       1.6452946     0.015688968
      3897.69       1.6554269     0.015607825
      3901.59       1.6634352     0.015392786
      3905.49       1.6628411     0.015470547
      3909.39       1.6670466     0.015389825
      3913.30       1.6691524     0.015178105
      3917.22       1.6724625     0.015255656
      3921.13       1.6796080     0.015041718
      3925.06       1.6799397     0.014965467
      3928.98       1.6910306     0.014892831
      3932.91       1.6844538     0.014831941
      3936.84       1.6751829     0.014755493
      3940.78       1.6779605     0.014682425
      3944.72       1.6814423     0.014623986
      3948.67       1.6664446     0.014548212
      3952.61       1.6520934     0.014474816
      3956.57       1.6416399     0.014404506
      3960.52       1.6295039     0.014343537
      3964.48       1.6185462     0.014270390
      3968.45       1.6172000     0.014199418
      3972.42       1.6046558     0.014004512
      3976.39       1.5906609     0.014068644
      3980.37       1.5770775     0.013997399
      3984.35       1.5672940     0.013807611
      3988.33       1.5561402     0.013734774
      3992.32       1.5471829     0.013798167
      3996.31       1.5378798     0.013614247
      4000.31       1.5253074     0.013540797
      4004.31       1.5197411     0.013469763
      4008.31       1.5088869     0.013532196
      4012.32       1.5094208     0.013350921
      4016.33       1.5132732     0.013279102
      4020.35       1.5110808     0.013209538
      4024.37       1.5014421     0.013030585
      4028.40       1.4930539     0.013092441
      4032.42       1.4907906     0.013021987
      4036.46       1.4839633     0.012953567
      4040.50       1.4745248     0.012777769
      4044.54       1.4687968     0.012839023
      4048.58       1.4586659     0.012769564
      4052.63       1.4474755     0.012702016
      4056.68       1.4555346     0.012528974
      4060.74       1.4526949     0.012464591
      4064.80       1.4490146     0.012522011
      4068.86       1.4424640     0.012455307
      4072.93       1.4409225     0.012285082
      4077.01       1.4504884     0.012220933
      4081.08       1.4468646     0.012158271
      4085.17       1.4427254     0.012096797
      4089.25       1.4429348     0.012045647
      4093.34       1.4384765     0.011981863
      4097.43       1.4319503     0.011919572
      4101.53       1.4294149     0.011858195
      4105.63       1.4307588     0.011797759
      4109.74       1.4251174     0.011637505
      4113.85       1.4175573     0.011685854
      4117.96       1.4144132     0.011624694
      4122.08       1.4238212     0.011564400
      4126.20       1.4334728     0.011411414
      4130.33       1.4422541     0.011350286
      4134.46       1.4521805     0.011289744
      4138.59       1.4522901     0.011229913
      4142.73       1.4565826     0.011277187
      4146.88       1.4610115     0.011130145
      4151.02       1.4629290     0.011069896
      4155.18       1.4670761     0.011010275
      4159.33       1.4539369     0.010951649
      4163.49       1.4482061     0.010893559
      4167.65       1.4440182     0.010836331
      4171.82       1.4389840     0.010797621
      4175.99       1.4349867     0.010739134
      4180.17       1.4254171     0.010681210
      4184.35       1.4159835     0.010623855
      4188.54       1.4002835     0.010567227
      4192.72       1.3930401     0.010511428
      4196.92       1.3969098     0.010371200
      4201.11       1.4034851     0.010316740
      4205.31       1.3994486     0.010262838
      4209.52       1.3954617     0.010209287
      4213.73       1.3886283     0.010251270
      4217.94       1.3882513     0.010196402
      4222.16       1.3854973     0.010060201
      4226.38       1.3773280     0.010006698
      4230.61       1.3664172    0.0099540021
      4234.84       1.3612258    0.0099015898
      4239.08       1.3430002    0.0098498114
      4243.32       1.3347567    0.0097981478
      4247.56       1.3214295    0.0097469768
      4251.81       1.3006365    0.0096962253
      4256.06       1.2777443    0.0095683325
      4260.32       1.2499718    0.0095174229
      4264.58       1.2279454    0.0094669633
      4268.84       1.2075434    0.0094166820
      4273.11       1.1873798    0.0094529514
      4277.38       1.1667141    0.0094033507
      4281.66       1.1505340    0.0093538502
      4285.94       1.1316583    0.0093047116
      4290.23       1.1253674    0.0092559242
      4294.52       1.1185580    0.0092075296
      4298.81       1.1137886    0.0090897932
      4303.11       1.1082294    0.0090413523
      4307.42       1.1033716    0.0089934884
      4311.72       1.1028424    0.0089457509
      4316.04       1.1028160    0.0088982994
      4320.35       1.1055997    0.0088511419
      4324.67       1.1103644    0.0088047051
      4329.00       1.1158970    0.0087583669
      4333.33       1.1181183    0.0087121416
      4337.66       1.1193502    0.0086664387
      4342.00       1.1252512    0.0086210720
      4346.34       1.1340155    0.0085758197
      4350.69       1.1363625    0.0085308345
      4355.04       1.1387738    0.0084863692
      4359.39       1.1425289    0.0083762390
      4363.75       1.1565185    0.0083323304
      4368.12       1.1680540    0.0082888715
      4372.48       1.1824329    0.0082458525
      4376.86       1.1974560    0.0082029027
      4381.23       1.2138168    0.0081599902
      4385.61       1.2274751    0.0081176897
      4390.00       1.2407153    0.0080756096
      4394.39       1.2623102    0.0080335330
      4398.79       1.2812786    0.0079919045
      4403.18       1.3021015    0.0079507268
      4407.59       1.3117538    0.0079096235
      4412.00       1.3312305    0.0077990971
      4416.41       1.3447903    0.0077590415
      4420.82       1.3576484    0.0077192430
      4425.25       1.3708454    0.0076793983
      4429.67       1.3826259    0.0076399727
      4434.10       1.3942690    0.0076009803
      4438.54       1.4030105    0.0075620032
      4442.97       1.4167996    0.0075232391
      4447.42       1.4284264    0.0074850467
      4451.86       1.4403484    0.0074471128
      4456.32       1.4518500    0.0074091740
      4460.77       1.4628632    0.0073716626
      4465.24       1.4687376    0.0073347174
      4469.70       1.4739151    0.0072978525
      4474.17       1.4808306    0.0071953959
      4478.65       1.4908149    0.0071589333
      4483.12       1.4954461    0.0071227038
      4487.61       1.4985284    0.0070864326
      4492.09       1.5014200    0.0070506955
      4496.59       1.5109056    0.0070154912
      4501.08       1.5229644    0.0069802212
      4505.58       1.5256043    0.0069980700
      4510.09       1.5322097    0.0069634105
      4514.60       1.5437370    0.0069290645
      4519.12       1.5517554    0.0068347896
      4523.63       1.5533905    0.0068004423
      4528.16       1.5608035    0.0067665055
      4532.69       1.5597237    0.0067325509
      4537.22       1.5629913    0.0066990476
      4541.76       1.5597202    0.0066660951
      4546.30       1.5584178    0.0066334141
      4550.85       1.5499902    0.0065444816
      4555.40       1.5460549    0.0065127512
      4559.95       1.5378291    0.0064815667
      4564.51       1.5323310    0.0064503494
      4569.08       1.5252727    0.0064658443
      4573.65       1.5198752    0.0064344000
      4578.22       1.5194636    0.0064030062
      4582.80       1.5207182    0.0063177316
      4587.38       1.5168318    0.0062876088
      4591.97       1.5091803    0.0062579567
      4596.56       1.4999226    0.0062283098
      4601.16       1.4872260    0.0061992753
      4605.76       1.4765932    0.0061708440
      4610.37       1.4592242    0.0061321927
      4614.98       1.4435354    0.0061031686
      4619.59       1.4265679    0.0060747654
      4624.21       1.4042243    0.0060466582
      4628.84       1.3804466    0.0060188540
      4633.47       1.3569815    0.0059392957
      4638.10       1.3289526    0.0059115613
      4642.74       1.3042833    0.0058840209
      4647.38       1.2784597    0.0059004461
      4652.03       1.2544648    0.0058739839
      4656.68       1.2333795    0.0057975105
      4661.34       1.2132905    0.0057706249
      4666.00       1.1959546    0.0057443544
      4670.67       1.1737617    0.0057185091
      4675.33       1.1542563    0.0056877337
      4680.01       1.1319558    0.0056614544
      4684.69       1.1069494    0.0056357306
      4689.38       1.0864752    0.0056102711
      4694.07       1.0695706    0.0055396531
      4698.76       1.0527787    0.0055157650
      4703.46       1.0370182    0.0055309576
      4708.16       1.0246450    0.0055062784
      4712.87       1.0111210    0.0054373855
      4717.58      0.99983334    0.0054140818
      4722.30      0.98959552    0.0053912544
      4727.03      0.97930891    0.0054062228
      4731.75      0.97186631    0.0053388280
      4736.48      0.96661667    0.0053161822
      4741.22      0.95672743    0.0052942581
      4745.96      0.94701957    0.0052730631
      4750.71      0.93740401    0.0052439061
      4755.46      0.93073147    0.0052221771
      4760.22      0.91995010    0.0052011972
      4764.97      0.91215747    0.0051370245
      4769.74      0.90509250    0.0051526962
      4774.51      0.90123370    0.0051319898
      4779.29      0.89737539    0.0051118254
      4784.07      0.89688580    0.0050490156
      4788.85      0.89729949    0.0050286994
      4793.64      0.90716668    0.0050454113
      4798.43      0.92256906    0.0049845460
      4803.23      0.93999307    0.0049645275
      4808.03      0.95924246    0.0049452678
      4812.84      0.98255344    0.0049221989
      4817.66       1.0049670    0.0049025208
      4822.48       1.0258682    0.0048836750
      4827.30       1.0508594    0.0048618252
      4832.12       1.0673404    0.0048425489
      4836.96       1.0847230    0.0048241217
      4841.79       1.1015718    0.0047685746
      4846.63       1.1172419    0.0047846305
      4851.48       1.1226245    0.0047666670
      4856.33       1.1286400    0.0047121754
      4861.19       1.1326626    0.0047286046
      4866.05       1.1293684    0.0047111160
      4870.92       1.1191830    0.0046576298
      4875.79       1.1075158    0.0046418410
      4880.66       1.0910802    0.0046210191
      4885.55       1.0806857    0.0046051018
      4890.43       1.0686797    0.0045899536
      4895.32       1.0483441    0.0045697718
      4900.22       1.0311818    0.0045544706
      4905.12       1.0106294    0.0045400339
      4910.02      0.99309421    0.0045204198
      4914.94      0.97792382    0.0045058883
      4919.85      0.97206694    0.0044559604
      4924.77      0.96351846    0.0044729432
      4929.70      0.95932488    0.0044591285
      4934.62      0.96232300    0.0044098247
      4939.56      0.96713936    0.0044273405
      4944.50      0.97131078    0.0043795463
      4949.44      0.98052589    0.0043655084
      4954.39      0.99164962    0.0043836613
      4959.35      0.99920136    0.0043363209
      4964.31       1.0105442    0.0043231779
      4969.27       1.0254132    0.0043081099
      4974.24       1.0370930    0.0042949738
      4979.22       1.0503658    0.0042505788
      4984.20       1.0648425    0.0042677789
      4989.18       1.0743125    0.0042236585
      4994.17       1.0828378    0.0042415299
      4999.16       1.0908636    0.0042293457
      5004.16       1.0989325    0.0041865895
      5009.17       1.1086530    0.0042040204
      5014.18       1.1158677    0.0041615967
      5019.19       1.1205276    0.0041796717
      5024.21       1.1236509    0.0041374618
      5029.23       1.1309996    0.0041275856
      5034.26       1.1346217    0.0041143198
      5039.30       1.1365127    0.0041045297
      5044.34       1.1372551    0.0040919718
      5049.39       1.1385886    0.0040822839
      5054.43       1.1404392    0.0040418278
      5059.49       1.1455666    0.0040608235
      5064.55       1.1508630    0.0040211890
      5069.61       1.1557111    0.0040402255
      5074.68       1.1659844    0.0040012133
      5079.76       1.1755038    0.0040204407
      5084.84       1.1885633    0.0039820897
      5089.92       1.1994108    0.0040013992
      5095.01       1.2139479    0.0039636532
      5100.11       1.2255561    0.0039550260
      5105.21       1.2346274    0.0039458759
      5110.31       1.2413773    0.0039375596
      5115.42       1.2543709    0.0039288187
      5120.54       1.2626220    0.0039207489
      5125.66       1.2733044    0.0039124758
      5130.79       1.2805061    0.0039047731
      5135.92       1.2892209    0.0038967421
      5141.05       1.2978533    0.0038616788
      5146.20       1.3017573    0.0038817413
      5151.34       1.3041770    0.0038471247
      5156.49       1.3066866    0.0038674125
      5161.65       1.3098717    0.0038333574
      5166.81       1.3148547    0.0038536967
      5171.98       1.3189368    0.0038202860
      5177.15       1.3219569    0.0038407475
      5182.33       1.3288272    0.0038078162
      5187.51       1.3322255    0.0038013117
      5192.70       1.3323680    0.0037961556
      5197.89       1.3330940    0.0037897378
      5203.09       1.3244609    0.0037851910
      5208.29       1.3220799    0.0037789334
      5213.50       1.3216839    0.0037473337
      5218.72       1.3201120    0.0037688387
      5223.93       1.3203313    0.0037374089
      5229.16       1.3185863    0.0037593622
      5234.39       1.3189353    0.0037281612
      5239.62       1.3151267    0.0037239331
      5244.86       1.3078418    0.0037457303
      5250.11       1.3021032    0.0037154682
      5255.36       1.2979604    0.0037121015
      5260.61       1.2919235    0.0037075523
      5265.87       1.2861563    0.0037043983
      5271.14       1.2803186    0.0037004950
      5276.41       1.2719003    0.0036972308
      5281.69       1.2657011    0.0036691494
      5286.97       1.2571143    0.0036909331
      5292.26       1.2487737    0.0036884142
      5297.55       1.2453383    0.0036604380
      5302.85       1.2362238    0.0036827494
      5308.15       1.2329465    0.0036556052
      5313.46       1.2322551    0.0036531297
      5318.77       1.2299382    0.0036759567
      5324.09       1.2257338    0.0036490592
      5329.42       1.2206564    0.0036471884
