# starting wavelength =        3414.8800
# ending wavelength =        7286.6500
# O2 telluric scale =        0
# O2 telluric shift =        0
# H2O telluric scale =        0
# H2O telluric shift =        0
      3415.91       1.2933226      0.11067691
      3419.32       1.3790776     0.089952495
      3422.74       1.4224359     0.077094634
      3426.17       1.4811699     0.066941332
      3429.59       1.5455658     0.058939557
      3433.02       1.6212685     0.052719991
      3436.45       1.6803829     0.048837705
      3439.89       1.7151055     0.044874916
      3443.33       1.7548940     0.041803075
      3446.78       1.7801874     0.039426175
      3450.22       1.8080819     0.037197166
      3453.67       1.8336916     0.035787773
      3457.13       1.8477237     0.034655598
      3460.58       1.8544349     0.033733974
      3464.04       1.8650509     0.032971537
      3467.51       1.8602764     0.032209731
      3470.98       1.8587522     0.031629201
      3474.45       1.8656934     0.031130467
      3477.92       1.8830971     0.030698406
      3481.40       1.8875185     0.030422051
      3484.88       1.8987726     0.030487938
      3488.37       1.8763434     0.030558002
      3491.86       1.8502562     0.030474098
      3495.35       1.8425853     0.030347254
      3498.84       1.8404451     0.030262250
      3502.34       1.8231572     0.030330433
      3505.84       1.8141156     0.030404864
      3509.35       1.7976585     0.030121548
      3512.86       1.7806436     0.030194143
      3516.37       1.7713340     0.030110857
      3519.89       1.7811497     0.030180427
      3523.41       1.8030664     0.030061871
      3526.93       1.7935372     0.029971832
      3530.46       1.7958062     0.030049596
      3533.99       1.7936825     0.030126238
      3537.53       1.8052963     0.029840625
      3541.06       1.8133627     0.029918065
      3544.60       1.8414868     0.029830275
      3548.15       1.8708001     0.029915015
      3551.70       1.8904996     0.029789620
      3555.25       1.9115782     0.029705801
      3558.80       1.8969402     0.029783463
      3562.36       1.9249303     0.029666503
      3565.92       1.9449870     0.029576389
      3569.49       1.9450873     0.029661827
      3573.06       1.9345516     0.029745140
      3576.64       1.9257705     0.029454290
      3580.21       1.9195809     0.029537720
      3583.79       1.9101287     0.029626486
      3587.38       1.9253631     0.029331748
      3590.96       1.9481227     0.029419507
      3594.55       1.9520475     0.029508248
      3598.15       1.9216211     0.029421042
      3601.75       1.9160845     0.029301933
      3605.35       1.9147314     0.029393990
      3608.96       1.9099728     0.029313272
      3612.56       1.8875102     0.029187717
      3616.18       1.8461488     0.029281298
      3619.79       1.8248234     0.029378371
      3623.41       1.8255642     0.029075934
      3627.04       1.8060629     0.029172135
      3630.66       1.8015666     0.029270518
      3634.29       1.7791344     0.028967307
      3637.93       1.7469352     0.029064180
      3641.57       1.7516397     0.029166624
      3645.21       1.7463713     0.029269325
      3648.86       1.7370819     0.028961315
      3652.50       1.7375932     0.029062544
      3656.16       1.7347883     0.029172220
      3659.81       1.7392214     0.028856983
      3663.47       1.7233412     0.028966753
      3667.14       1.7133825     0.029071462
      3670.80       1.6843577     0.028957005
      3674.48       1.6537598     0.028865948
      3678.15       1.6435793     0.028985030
      3681.83       1.6182076     0.028861083
      3685.51       1.5990198     0.028975669
      3689.20       1.5761933     0.028887628
      3692.88       1.5220691     0.028769464
      3696.58       1.4626287     0.028889862
      3700.27       1.4127675     0.029007952
      3703.98       1.3247101     0.028894668
      3707.68       1.2381680     0.028801768
      3711.39       1.1556124     0.028686753
      3715.10       1.0766194     0.028810262
      3718.81       1.0042968     0.028937066
      3722.53      0.93236992     0.028605847
      3726.26      0.86475289     0.028729338
      3729.98      0.78744959     0.028867145
      3733.71      0.74097482     0.028744476
      3737.45      0.68811741     0.028880299
      3741.18      0.65067237     0.028789230
      3744.93      0.61520334     0.028671474
      3748.67      0.58984475     0.028815264
      3752.42      0.57246162     0.028693963
      3756.17      0.55120431     0.028837877
      3759.93      0.54174146     0.028985313
      3763.69      0.53583578     0.028628411
      3767.45      0.53616545     0.028780143
      3771.22      0.52635140     0.028925881
      3774.99      0.54522054     0.028810994
      3778.77      0.54718195     0.028968532
      3782.54      0.56736395     0.028848896
      3786.33      0.58167153     0.028763439
      3790.11      0.59781929     0.028915429
      3793.90      0.61394864     0.028799153
      3797.70      0.64397327     0.028969439
      3801.50      0.67953115     0.028847664
      3805.30      0.70419258     0.028766081
      3809.10      0.73832126     0.028640327
      3812.91      0.80145539     0.028521858
      3816.73      0.85488934     0.028439089
      3820.54      0.90693295     0.028316378
      3824.36      0.94280356     0.028200783
      3828.19      0.99833691     0.028116062
      3832.02       1.0285599     0.027995889
      3835.85       1.0647489     0.027632447
      3839.68       1.1099945     0.027796453
      3843.52       1.1611437     0.027678221
      3847.37       1.2183691     0.027319022
      3851.22       1.2939424     0.027481268
      3855.07       1.3530543     0.027364213
      3858.92       1.4260532     0.027009373
      3862.78       1.4801883     0.027169870
      3866.64       1.5303874     0.027054110
      3870.51       1.5888092     0.026702430
      3874.38       1.6389931     0.026598975
      3878.26       1.6920295     0.026746885
      3882.13       1.7675264     0.026398193
      3886.02       1.8375137     0.026294816
      3889.90       1.9188836     0.026205896
      3893.79       2.0042891     0.026097656
      3897.69       2.0919131     0.025993694
      3901.59       2.1840187     0.025894707
      3905.49       2.2640930     0.025799929
      3909.39       2.3466225     0.025696154
      3913.30       2.4242207     0.025596512
      3917.22       2.4966466     0.025506301
      3921.13       2.5720484     0.025401911
      3925.06       2.6234098     0.025301381
      3928.98       2.6545993     0.024977275
      3932.91       2.6869666     0.025111612
      3936.84       2.7027737     0.025010071
      3940.78       2.6941349     0.024694897
      3944.72       2.6692439     0.024589645
      3948.67       2.6499125     0.024722772
      3952.61       2.6247624     0.024417662
      3956.57       2.5947515     0.024310974
      3960.52       2.5787046     0.024207979
      3964.48       2.5632147     0.024108356
      3968.45       2.5570417     0.024038204
      3972.42       2.5360616     0.023934218
      3976.39       2.5233695     0.023832687
      3980.37       2.5196771     0.023734229
      3984.35       2.5060801     0.023665634
      3988.33       2.4703959     0.023562926
      3992.32       2.4574925     0.023463095
      3996.31       2.4379133     0.023164971
      4000.31       2.4014380     0.023071535
      4004.31       2.3751220     0.023198808
      4008.31       2.3351070     0.023099703
      4012.32       2.2892912     0.022805552
      4016.33       2.2375793     0.022712546
      4020.35       2.1879509     0.022621899
      4024.37       2.1462687     0.022743341
      4028.40       2.0901092     0.022453026
      4032.42       2.0397500     0.022359734
      4036.46       1.9764966     0.022268724
      4040.50       1.9083173     0.022179889
      4044.54       1.8519536     0.022093103
      4048.58       1.7936247     0.022012982
      4052.63       1.7381591     0.021922297
      4056.68       1.6722591     0.021833039
      4060.74       1.6192202     0.021745829
      4064.80       1.5635237     0.021474224
      4068.86       1.5316444     0.021384151
      4072.93       1.5002971     0.021493484
      4077.01       1.4805678     0.021406108
      4081.08       1.4685213     0.021319884
      4085.17       1.4502242     0.021056202
      4089.25       1.4523566     0.020967416
      4093.34       1.4837478     0.020880171
      4097.43       1.5130065     0.020793883
      4101.53       1.5369118     0.020901734
      4105.63       1.5585604     0.020648163
      4109.74       1.5702278     0.020560719
      4113.85       1.5738288     0.020474304
      4117.96       1.5788331     0.020389203
      4122.08       1.5740610     0.020304887
      4126.20       1.5631964     0.020054399
      4130.33       1.5509840     0.019973263
      4134.46       1.5432168     0.020079551
      4138.59       1.5412292     0.019994985
      4142.73       1.5332809     0.019911253
      4146.88       1.5436173     0.019828900
      4151.02       1.5466068     0.019747201
      4155.18       1.5588960     0.019503805
      4159.33       1.5622538     0.019424381
      4163.49       1.5734985     0.019346101
      4167.65       1.5869528     0.019268328
      4171.82       1.6108262     0.019191859
      4175.99       1.6176152     0.019287535
      4180.17       1.6239945     0.019049094
      4184.35       1.6248121     0.018970444
      4188.54       1.6136782     0.018893039
      4192.72       1.6146547     0.018816060
      4196.92       1.6020138     0.018740179
      4201.11       1.6026819     0.018664377
      4205.31       1.6040280     0.018589544
      4209.52       1.6053488     0.018515015
      4213.73       1.6059178     0.018292407
      4217.94       1.6183344     0.018216988
      4222.16       1.6273676     0.018142813
      4226.38       1.6475474     0.018068705
      4230.61       1.6638162     0.017995559
      4234.84       1.6745017     0.017922350
      4239.08       1.6880867     0.017850330
      4243.32       1.6894751     0.017778216
      4247.56       1.7024830     0.017706954
      4251.81       1.7110679     0.017794255
      4256.06       1.7246381     0.017723326
      4260.32       1.7278683     0.017516385
      4264.58       1.7426189     0.017445462
      4268.84       1.7515432     0.017374524
      4273.11       1.7587285     0.017304444
      4277.38       1.7631174     0.017234256
      4281.66       1.7630555     0.017165183
      4285.94       1.7581724     0.017096064
      4290.23       1.7466248     0.017027786
      4294.52       1.7386244     0.016959400
      4298.81       1.7341285     0.016892014
      4303.11       1.7109454     0.016824583
      4307.42       1.7001584     0.016757935
      4311.72       1.6791444     0.016691147
      4316.04       1.6416008     0.016625319
      4320.35       1.6130380     0.016559388
      4324.67       1.5745755     0.016494178
      4329.00       1.5542068     0.016428813
      4333.33       1.5244438     0.016233233
      4337.66       1.5071102     0.016030213
      4342.00       1.4724342     0.015967460
      4346.34       1.4456742     0.015904940
      4350.69       1.4048657     0.015842801
      4355.04       1.3516537     0.015780927
      4359.39       1.3013342     0.015719549
      4363.75       1.2489363     0.015658445
      4368.12       1.2020223     0.015597741
      4372.48       1.1574182     0.015537344
      4376.86       1.1159505     0.015477472
      4381.23       1.0781450     0.015417895
      4385.61       1.0352660     0.015358729
      4390.00       1.0039278     0.015299908
      4394.39      0.97543190     0.015241630
      4398.79      0.94802088     0.015183667
      4403.18      0.94658047     0.015126094
      4407.59      0.95674975     0.015069080
      4412.00      0.98603379     0.014878143
      4416.41       1.0114697     0.014821170
      4420.82       1.0514354     0.014764631
      4425.25       1.0830570     0.014708278
      4429.67       1.1232141     0.014766790
      4434.10       1.1592954     0.014711184
      4438.54       1.1978141     0.014655944
      4442.97       1.2344101     0.014600910
      4447.42       1.2721187     0.014546268
      4451.86       1.3185079     0.014492493
      4456.32       1.3613210     0.014439117
      4460.77       1.3969212     0.014262220
      4465.24       1.4321341     0.014208304
      4469.70       1.4607681     0.014154957
      4474.17       1.4935725     0.014102240
      4478.65       1.5287312     0.014049740
      4483.12       1.5593785     0.013997847
      4487.61       1.6049065     0.013946295
      4492.09       1.6477926     0.013779856
      4496.59       1.6854054     0.013730174
      4501.08       1.7241930     0.013680657
      4505.58       1.7644783     0.013734348
      4510.09       1.8000418     0.013683693
      4514.60       1.8345648     0.013633331
      4519.12       1.8747835     0.013583747
      4523.63       1.9061032     0.013422538
      4528.16       1.9268780     0.013374657
      4532.69       1.9494240     0.013327545
      4537.22       1.9796458     0.013280898
      4541.76       1.9976928     0.013235063
      4546.30       2.0128733     0.013189713
      4550.85       2.0249950     0.013128319
      4555.40       2.0467736     0.013081730
      4559.95       2.0641133     0.013035971
      4564.51       2.0786013     0.012991011
      4569.08       2.0921249     0.012946912
      4573.65       2.1138006     0.012793709
      4578.22       2.1163794     0.012748541
      4582.80       2.1276077     0.012704207
      4587.38       2.1361869     0.012756838
      4591.97       2.1313519     0.012713935
      4596.56       2.1269792     0.012566029
      4601.16       2.1169391     0.012522262
      4605.76       2.0946043     0.012479033
      4610.37       2.0683832     0.012436926
      4614.98       2.0424624     0.012489655
      4619.59       2.0083100     0.012346201
      4624.21       1.9852023     0.012303678
      4628.84       1.9587757     0.012261961
      4633.47       1.9330537     0.012221245
      4638.10       1.9040584     0.012083530
      4642.74       1.8799647     0.012133834
      4647.38       1.8493586     0.012092577
      4652.03       1.8237040     0.012052432
      4656.68       1.7971061     0.011916941
      4661.34       1.7648453     0.011879431
      4666.00       1.7330423     0.011928498
      4670.67       1.7032603     0.011889171
      4675.33       1.6634237     0.011756099
      4680.01       1.6253093     0.011719208
      4684.69       1.5709125     0.011683709
      4689.38       1.5110971     0.011637009
      4694.07       1.4524664     0.011600145
      4698.76       1.3947209     0.011564350
      4703.46       1.3311699     0.011530066
      4708.16       1.2554938     0.011400304
      4712.87       1.1879314     0.011449040
      4717.58       1.1105992     0.011414588
      4722.30       1.0351813     0.011288981
      4727.03      0.95285388     0.011253765
      4731.75      0.89096227     0.011302844
      4736.48      0.83686213     0.011270109
      4741.22      0.79284361     0.011146247
      4745.96      0.75269478     0.011112403
      4750.71      0.72290111     0.011162013
      4755.46      0.71511173     0.011041278
      4760.22      0.71158793     0.011007809
      4764.97      0.71445557     0.010975696
      4769.74      0.72893667     0.010939179
      4774.51      0.72352968     0.010905874
      4779.29      0.73366938     0.010874288
      4784.07      0.74218872     0.010760235
      4788.85      0.74516908     0.010806922
      4793.64      0.73570530     0.010775748
      4798.43      0.72321270     0.010663338
      4803.23      0.70704995     0.010710542
      4808.03      0.68197261     0.010680050
      4812.84      0.65734078     0.010569244
      4817.66      0.62829123     0.010542317
      4822.48      0.60683636     0.010505487
      4827.30      0.59060308     0.010477618
      4832.12      0.58327133     0.010451464
      4836.96      0.57784855     0.010415705
      4841.79      0.59306335     0.010388714
      4846.63      0.61648912     0.010363599
      4851.48      0.64969275     0.010328408
      4856.33      0.69039120     0.010302627
      4861.19      0.73273352     0.010196443
      4866.05      0.77076560     0.010243801
      4870.92      0.81839735     0.010219274
      4875.79      0.85577741     0.010113951
      4880.66      0.89794522     0.010162054
      4885.55      0.93357195     0.010059467
      4890.43      0.96781177     0.010033845
      4895.32      0.99676500     0.010006861
      4900.22       1.0201490    0.0099805891
      4905.12       1.0448409    0.0099564154
      4910.02       1.0635513    0.0099290800
      4914.94       1.0775454    0.0099045041
      4919.85       1.0873143    0.0098791581
      4924.77       1.0968719    0.0098541072
      4929.70       1.0969601    0.0097583515
      4934.62       1.0926353    0.0098053178
      4939.56       1.0758955    0.0097821077
      4944.50       1.0534526    0.0096888581
      4949.44       1.0275983    0.0097344438
      4954.39      0.98858373    0.0096413245
      4959.35      0.94373873    0.0096879782
      4964.31      0.88968539    0.0095950750
      4969.27      0.84581988    0.0095762157
      4974.24      0.80922349    0.0095502215
      4979.22      0.77853549    0.0095312317
      4984.20      0.74696101    0.0095064840
      4989.18      0.72822532    0.0094874993
      4994.17      0.71721758    0.0093971354
      4999.16      0.71400023    0.0094449881
      5004.16      0.72273930    0.0093560045
      5009.17      0.72996302    0.0094037674
      5014.18      0.74442849    0.0093159584
      5019.19      0.76784168    0.0093635937
      5024.21      0.78264153    0.0092769069
      5029.23      0.79987085    0.0093246085
      5034.26      0.81592932    0.0092388788
      5039.30      0.82769786    0.0092208149
      5044.34      0.84649744    0.0092019883
      5049.39      0.86208765    0.0091841490
      5054.43      0.87785874    0.0091658109
      5059.49      0.89072497    0.0091482486
      5064.55      0.92382373    0.0091305840
      5069.61      0.95474045    0.0091135596
      5074.68      0.98994924    0.0090962913
      5079.76       1.0277626    0.0090151301
      5084.84       1.0672094    0.0090628745
      5089.92       1.0998933    0.0089826788
      5095.01       1.1300045    0.0090304348
      5100.11       1.1620636    0.0089512371
      5105.21       1.1906393    0.0089991099
      5110.31       1.2171186    0.0089208292
      5115.42       1.2444680    0.0089685460
      5120.54       1.2637167    0.0088913910
      5125.66       1.2789271    0.0088756266
      5130.79       1.2938298    0.0088629330
      5135.92       1.3028172    0.0088471852
      5141.05       1.3178507    0.0088355897
      5146.20       1.3220062    0.0088199077
      5151.34       1.3257010    0.0087451333
      5156.49       1.3330084    0.0087937352
      5161.65       1.3517040    0.0087189682
      5166.81       1.3670336    0.0087686336
      5171.98       1.3843279    0.0086939903
      5177.15       1.4026969    0.0086822825
      5182.33       1.4154831    0.0086700882
      5187.51       1.4254257    0.0086581284
      5192.70       1.4455507    0.0086479077
      5197.89       1.4659755    0.0086349634
      5203.09       1.4907504    0.0086244866
      5208.29       1.5119249    0.0086130187
      5213.50       1.5341380    0.0086023538
      5218.72       1.5623193    0.0085334719
      5223.93       1.5887999    0.0085813769
      5229.16       1.6190059    0.0085719852
      5234.39       1.6408158    0.0085031209
      5239.62       1.6571208    0.0085518398
      5244.86       1.6748897    0.0084849428
