# starting wavelength =        3455.8400
# ending wavelength =        7363.5900
# O2 telluric scale =        0
# O2 telluric shift =        0
# H2O telluric scale =        0
# H2O telluric shift =        0
      3457.13     0.051920676     0.039104788
      3460.58     0.072583158     0.033188897
      3464.04      0.10499228     0.028482605
      3467.51      0.13411814     0.024762609
      3470.98      0.16456293     0.022406797
      3474.45      0.18815065     0.020031017
      3477.92      0.21173358     0.018178605
      3481.40      0.23426272     0.016741013
      3484.88      0.25070314     0.015629382
      3488.37      0.27403183     0.014608021
      3491.86      0.28101032     0.013967107
      3495.35      0.28059663     0.013462380
      3498.84      0.28322495     0.013059417
      3502.34      0.27624207     0.012725387
      3505.84      0.27453171     0.012436543
      3509.35      0.27417747     0.012195744
      3512.86      0.27187853     0.011992527
      3516.37      0.27122786     0.011749948
      3519.89      0.27343206     0.011603602
      3523.41      0.27313968     0.011658234
      3526.93      0.26809988     0.011647616
      3530.46      0.26221925     0.011704403
      3533.99      0.24545798     0.011625336
      3537.53      0.23211229     0.011681484
      3541.06      0.21887552     0.011737553
      3544.60      0.20810418     0.011727151
      3548.15      0.19438299     0.011715489
      3551.70      0.18336742     0.011704603
      3555.25      0.17605543     0.011763271
      3558.80      0.17174521     0.011820292
      3562.36      0.15420358     0.011740105
      3565.92      0.14388621     0.011797598
      3569.49      0.13621476     0.011857554
      3573.06      0.13113030     0.011775082
      3576.64      0.13659888     0.011834411
      3580.21      0.13578774     0.011895170
      3583.79      0.14866826     0.011883851
      3587.38      0.15314637     0.011872490
      3590.96      0.16718728     0.011860819
      3594.55      0.18220401     0.011923472
      3598.15      0.19187988     0.011985064
      3601.75      0.21460086     0.011900176
      3605.35      0.22568401     0.011961855
      3608.96      0.23550048     0.012026229
      3612.56      0.23799709     0.011938599
      3616.18      0.24464199     0.012002635
      3619.79      0.25900097     0.012067303
      3623.41      0.27425605     0.012056221
      3627.04      0.29013971     0.012043802
      3630.66      0.30216612     0.012110046
      3634.29      0.31274717     0.012101287
      3637.93      0.32324371     0.012086209
      3641.57      0.32877126     0.012153642
      3645.21      0.33919120     0.012141961
      3648.86      0.34659059     0.012129701
      3652.50      0.35075507     0.012198230
      3656.16      0.35098817     0.012268401
      3659.81      0.34352225     0.012256359
      3663.47      0.32965570     0.012244039
      3667.14      0.31906131     0.012315601
      3670.80      0.30014870     0.012307058
      3674.48      0.27842299     0.012291303
      3678.15      0.26315175     0.012363771
      3681.83      0.24038730     0.012438919
      3685.51      0.22784519     0.012339185
      3689.20      0.21649817     0.012414376
      3692.88      0.21058946     0.012489144
      3696.58      0.20314202     0.012478492
      3700.27      0.20275052     0.012463998
      3703.98      0.19966412     0.012543475
      3707.68      0.19325712     0.012528936
      3711.39      0.19329203     0.012518962
      3715.10      0.19465529     0.012595487
      3718.81      0.19545988     0.012583013
      3722.53      0.19899308     0.012663924
      3726.26      0.19702939     0.012746221
      3729.98      0.19512365     0.012638788
      3733.71      0.20167292     0.012720201
      3737.45      0.21663745     0.012806716
      3741.18      0.23435514     0.012792116
      3744.93      0.24768101     0.012781546
      3748.67      0.24995769     0.012865037
      3752.42      0.25332289     0.012852291
      3756.17      0.24187898     0.012941596
      3759.93      0.23236340     0.012927643
      3763.69      0.22458213     0.012916046
      3767.45      0.20880897     0.013003953
      3771.22      0.19871669     0.012992251
      3774.99      0.18573768     0.013084331
      3778.77      0.17464560     0.013178740
      3782.54      0.17147294     0.013058273
      3786.33      0.17339529     0.013151129
      3790.11      0.17134854     0.013139797
      3793.90      0.17131962     0.013235859
      3797.70      0.17077430     0.013335469
      3801.50      0.16920362     0.013209338
      3805.30      0.15887131     0.013306808
      3809.10      0.15684237     0.013413421
      3812.91      0.15063224     0.013396629
      3816.73      0.15715500     0.013500607
      3820.54      0.16442454     0.013490692
      3824.36      0.17312416     0.013595509
      3828.19      0.17959328     0.013585417
      3832.02      0.18453623     0.013567408
      3835.85      0.19532543     0.013676147
      3839.68      0.20371536     0.013665074
      3843.52      0.20705710     0.013777516
      3847.37      0.21043234     0.013893725
      3851.22      0.21700105     0.013750423
      3855.07      0.22430106     0.013733910
      3858.92      0.23724961     0.013725025
      3862.78      0.25000516     0.013705980
      3866.64      0.25612082     0.013690332
      3870.51      0.25267921     0.013680469
      3874.38      0.24391275     0.013662117
      3878.26      0.23003562     0.013646829
      3882.13      0.21582286     0.013636516
      3886.02      0.20326961     0.013618313
      3889.90      0.19661290     0.013603199
      3893.79      0.19356738     0.013462316
      3897.69      0.18803726     0.013574756
      3901.59      0.18312969     0.013431241
      3905.49      0.17826215     0.013418876
      3909.39      0.17746126     0.013531224
      3913.30      0.16840025     0.013388014
      3917.22      0.16356226     0.013375213
      3921.13      0.16537773     0.013487993
      3925.06      0.17931648     0.013344655
      3928.98      0.20320407     0.013331387
      3932.91      0.22877472     0.013320300
      3936.84      0.24880990     0.013301559
      3940.78      0.26671758     0.013287562
      3944.72      0.28590051     0.013275539
      3948.67      0.29856744     0.013139281
      3952.61      0.31374741     0.013243834
      3956.57      0.33447456     0.013231026
      3960.52      0.36457226     0.013097189
      3964.48      0.39530515     0.013081638
      3968.45      0.40660465     0.013186476
      3972.42      0.41811556     0.013174832
      3976.39      0.42536313     0.013039192
      3980.37      0.42105124     0.013024288
      3984.35      0.41578402     0.013129210
      3988.33      0.40879872     0.012997628
      3992.32      0.41061779     0.012981585
      3996.31      0.40823250     0.012967218
      4000.31      0.40461871     0.012957203
      4004.31      0.40263443     0.012939976
      4008.31      0.39060187     0.012924180
      4012.32      0.38055342     0.012909929
      4016.33      0.37168695     0.012899905
      4020.35      0.36458370     0.012882946
      4024.37      0.36401725     0.012867097
      4028.40      0.37737049     0.012852675
      4032.42      0.38810689     0.012722681
      4036.46      0.40087377     0.012825951
      4040.50      0.40800909     0.012809926
      4044.54      0.40965758     0.012795211
      4048.58      0.42650165     0.012665187
      4052.63      0.44015869     0.012652846
      4056.68      0.44893410     0.012753198
      4060.74      0.46098659     0.012622067
      4064.80      0.46808837     0.012608006
      4068.86      0.48325762     0.012594782
      4072.93      0.48525928     0.012582710
      4077.01      0.48162467     0.012681221
      4081.08      0.47778245     0.012551080
      4085.17      0.47112842     0.012537256
      4089.25      0.46321552     0.012524103
      4093.34      0.46226446     0.012511970
      4097.43      0.45860262     0.012386249
      4101.53      0.46032201     0.012480328
      4105.63      0.46229751     0.012466047
      4109.74      0.45221029     0.012452778
      4113.85      0.44692995     0.012440019
      4117.96      0.44046179     0.012316458
      4122.08      0.44045199     0.012301335
      4126.20      0.44757354     0.012287121
      4130.33      0.44864252     0.012381087
      4134.46      0.44522918     0.012367891
      4138.59      0.44453169     0.012247426
      4142.73      0.44355945     0.012231966
      4146.88      0.44760364     0.012217277
      4151.02      0.45910817     0.012202739
      4155.18      0.45742089     0.012189067
      4159.33      0.45197298     0.012179711
      4163.49      0.45130536     0.012163981
      4167.65      0.44689629     0.012148313
      4171.82      0.44277721     0.012133340
      4175.99      0.44144502     0.012118658
      4180.17      0.44071474     0.012104577
      4184.35      0.43731308     0.011984665
      4188.54      0.42782900     0.011971229
      4192.72      0.42415475     0.011958188
      4196.92      0.43128684     0.011945064
      4201.11      0.43413028     0.012035743
      4205.31      0.43258516     0.012020765
      4209.52      0.42682612     0.012006496
      4213.73      0.42846812     0.011886898
      4217.94      0.43177039     0.011873425
      4222.16      0.43915435     0.011859494
      4226.38      0.44634968     0.011846330
      4230.61      0.45310073     0.011832980
      4234.84      0.44422997     0.011819931
      4239.08      0.41706481     0.011807181
      4243.32      0.40221138     0.011691502
      4247.56      0.40260106     0.011677411
      4251.81      0.39963851     0.011663209
      4256.06      0.39810375     0.011748490
      4260.32      0.39519565     0.011734265
      4264.58      0.40627977     0.011720791
      4268.84      0.41570843     0.011706786
      4273.11      0.43000084     0.011693380
      4277.38      0.45954274     0.011679939
      4281.66      0.47104239     0.011570378
      4285.94      0.48266119     0.011555947
      4290.23      0.50252136     0.011541533
      4294.52      0.53347171     0.011527480
      4298.81      0.55729701     0.011513013
      4303.11      0.57887358     0.011499262
      4307.42      0.60273815     0.011485072
      4311.72      0.61321431     0.011471240
      4316.04      0.62083007     0.011457204
      4320.35      0.61288652     0.011443381
      4324.67      0.62665737     0.011429779
      4329.00      0.64200250     0.011415918
      4333.33      0.63544784     0.011402374
      4337.66      0.62845585     0.011388345
      4342.00      0.62497758     0.011278772
      4346.34      0.62822129     0.011265072
      4350.69      0.62420317     0.011251760
      4355.04      0.62219951     0.011238120
      4359.39      0.61921316     0.011224580
      4363.75      0.60769660     0.011211047
      4368.12      0.60193380     0.011197294
      4372.48      0.60330034     0.011183862
      4376.86      0.61577643     0.011170145
      4381.23      0.62291983     0.011156831
      4385.61      0.62356470     0.011143200
      4390.00      0.62838189     0.011129709
      4394.39      0.62619392     0.011116157
      4398.79      0.62398891     0.011102644
      4403.18      0.63222239     0.011089231
      4407.59      0.64351731     0.011075708
      4412.00      0.64859988     0.010971876
      4416.41      0.65080712     0.010958485
      4420.82      0.65309477     0.010945209
      4425.25      0.65399529     0.010931916
      4429.67      0.66327903     0.010918720
      4434.10      0.67905124     0.010905406
      4438.54      0.69368722     0.010892108
      4442.97      0.70831401     0.010878933
      4447.42      0.73085159     0.010865792
      4451.86      0.75045513     0.010852817
      4456.32      0.76664249     0.010839823
      4460.77      0.77332867     0.010826814
      4465.24      0.77556399     0.010813994
      4469.70      0.76858467     0.010801251
      4474.17      0.75996735     0.010697884
      4478.65      0.74771969     0.010684514
      4483.12      0.74575487     0.010670936
      4487.61      0.75179708     0.010657556
      4492.09      0.74897857     0.010644425
      4496.59      0.74805076     0.010631292
      4501.08      0.74844779     0.010618398
      4505.58      0.74289235     0.010692649
      4510.09      0.74326638     0.010679767
      4514.60      0.75489551     0.010581339
      4519.12      0.76938480     0.010567373
      4523.63      0.77627903     0.010553751
      4528.16      0.78545955     0.010539939
      4532.69      0.79349192     0.010526558
      4537.22      0.79632979     0.010513279
      4541.76      0.79622092     0.010500029
      4546.30      0.79003788     0.010404215
      4550.85      0.79367366     0.010391357
      4555.40      0.79598250     0.010379172
      4559.95      0.79543222     0.010366963
      4564.51      0.79887767     0.010435717
      4569.08      0.80832752     0.010422230
      4573.65      0.81357120     0.010408755
      4578.22      0.81324418     0.010313513
      4582.80      0.82106865     0.010300601
      4587.38      0.82731121     0.010288320
      4591.97      0.82185694     0.010276274
      4596.56      0.82002239     0.010264468
      4601.16      0.81943621     0.010168570
      4605.76      0.81750733     0.010236311
      4610.37      0.80803880     0.010223499
      4614.98      0.80482533     0.010210949
      4619.59      0.80641261     0.010198711
      4624.21      0.81093928     0.010105502
      4628.84      0.80623208     0.010092022
      4633.47      0.79818794     0.010079022
      4638.10      0.79362293     0.010146394
      4642.74      0.79679584     0.010133949
      4647.38      0.80389050     0.010042600
      4652.03      0.80946507     0.010028869
      4656.68      0.81073998     0.010015430
      4661.34      0.80883588     0.010002871
      4666.00      0.80690667    0.0099906051
      4670.67      0.81868457    0.0099797565
      4675.33      0.82312280    0.0099658269
      4680.01      0.82202301    0.0099526323
      4684.69      0.82804579    0.0099399438
      4689.38      0.82999311    0.0098513986
      4694.07      0.83251508    0.0099162863
      4698.76      0.83566440    0.0099025683
      4703.46      0.83967335    0.0098895724
      4708.16      0.83874574    0.0098013051
      4712.87      0.83393184    0.0097895212
      4717.58      0.82542395    0.0097786843
      4722.30      0.82062358    0.0098394755
      4727.03      0.81892528    0.0097514669
      4731.75      0.82446741    0.0097397343
      4736.48      0.83268150    0.0097286916
      4741.22      0.83661219    0.0097144412
      4745.96      0.84360760    0.0097020626
      4750.71      0.84838317    0.0096904419
      4755.46      0.85796926    0.0096796939
      4760.22      0.86901442    0.0095911699
      4764.97      0.87657395    0.0096527609
      4769.74      0.88346111    0.0096413236
      4774.51      0.89746889    0.0095549918
      4779.29      0.89684141    0.0095422777
      4784.07      0.89998405    0.0096036938
      4788.85      0.89749018    0.0095191517
      4793.64      0.88748715    0.0095059090
      4798.43      0.87803429    0.0094936247
      4803.23      0.87596178    0.0094837708
      4808.03      0.86615428    0.0094700346
      4812.84      0.85799596    0.0094572638
      4817.66      0.84999359    0.0094456722
      4822.48      0.83980299    0.0094342691
      4827.30      0.83198236    0.0094211674
      4832.12      0.83258313    0.0093390490
      4836.96      0.82334451    0.0093983715
      4841.79      0.80829027    0.0093851345
      4846.63      0.80200344    0.0093031310
      4851.48      0.80157261    0.0092925012
      4856.33      0.79890938    0.0093493329
      4861.19      0.80081494    0.0092675332
      4866.05      0.81091436    0.0092567318
      4870.92      0.81576288    0.0093135156
      4875.79      0.82073619    0.0092321855
      4880.66      0.82592299    0.0092214624
      4885.55      0.83098568    0.0092084188
      4890.43      0.84573174    0.0091967462
      4895.32      0.86428284    0.0091863464
      4900.22      0.86862666    0.0091051156
      4905.12      0.87452845    0.0091616395
      4910.02      0.87884732    0.0091516383
      4914.94      0.87765683    0.0090701568
      4919.85      0.87299158    0.0091268261
      4924.77      0.86489168    0.0090472185
      4929.70      0.84876899    0.0090354328
      4934.62      0.82275504    0.0090250102
      4939.56      0.81130184    0.0090123167
      4944.50      0.79457584    0.0090683503
      4949.44      0.78351350    0.0089897498
      4954.39      0.77397033    0.0089778460
      4959.35      0.77106711    0.0089677667
      4964.31      0.77169349    0.0089547488
      4969.27      0.76309109    0.0088788200
      4974.24      0.77319130    0.0089324631
      4979.22      0.78641004    0.0089205104
      4984.20      0.80597180    0.0088457006
      4989.18      0.82511849    0.0088975648
      4994.17      0.83442525    0.0088224046
      4999.16      0.84113175    0.0088753431
      5004.16      0.84361920    0.0087994328
      5009.17      0.85036718    0.0087900983
      5014.18      0.84782962    0.0087769576
      5019.19      0.84573053    0.0087668563
      5024.21      0.83750965    0.0087546323
      5029.23      0.83057666    0.0087441163
      5034.26      0.82785662    0.0086694455
      5039.30      0.82203956    0.0087215315
      5044.34      0.81866199    0.0086475922
      5049.39      0.80841638    0.0086990110
      5054.43      0.80200559    0.0086258360
      5059.49      0.79823955    0.0086768441
      5064.55      0.78941387    0.0086040146
      5069.61      0.78772502    0.0085925290
      5074.68      0.80002088    0.0085823927
      5079.76      0.80390449    0.0085706413
      5084.84      0.79250537    0.0085608019
      5089.92      0.78261379    0.0085487997
      5095.01      0.76038281    0.0085391391
      5100.11      0.74157570    0.0085272730
      5105.21      0.72236942    0.0085175047
      5110.31      0.70583072    0.0085055737
      5115.42      0.70285669    0.0084959715
      5120.54      0.69067854    0.0084839931
      5125.66      0.68100402    0.0084744140
      5130.79      0.68219734    0.0084625769
      5135.92      0.69362159    0.0083936947
      5141.05      0.69875931    0.0083817074
      5146.20      0.70771563    0.0083727714
      5151.34      0.72402514    0.0083606908
      5156.49      0.74781150    0.0083521036
      5161.65      0.77125320    0.0083398218
      5166.81      0.79663388    0.0083316302
      5171.98      0.85309227    0.0083191195
      5177.15      0.88473419    0.0082502294
      5182.33      0.88732872    0.0082984508
      5187.51      0.89104648    0.0082873530
      5192.70      0.88823940    0.0082780774
      5197.89      0.87733720    0.0082666164
      5203.09      0.88529567    0.0082579924
      5208.29      0.89474379    0.0082460643
      5213.50      0.89722389    0.0081782203
      5218.72      0.89059500    0.0082257672
      5223.93      0.89554874    0.0081576347
      5229.16      0.91477665    0.0081484965
      5234.39      0.93727166    0.0081373253
      5239.62      0.93198984    0.0081276494
      5244.86      0.93333768    0.0081175421
      5250.11      0.94477203    0.0081071170
      5255.36      0.95440882    0.0080981506
      5260.61      0.95292269    0.0080870122
      5265.87      0.95932228    0.0080774490
      5271.14      0.97766175    0.0080120733
      5276.41      0.98140302    0.0080571359
      5281.69      0.96406175    0.0079931328
      5286.97      0.95578845    0.0079821749
      5292.26      0.95315497    0.0080275319
      5297.55      0.95826021    0.0079631870
      5302.85      0.97300993    0.0079527197
      5308.15      0.97638288    0.0079448806
