# starting wavelength =        3423.0000
# ending wavelength =        7279.5200
# O2 telluric scale =        0
# O2 telluric shift =        0
# H2O telluric scale =        0
# H2O telluric shift =        0
      3426.17       1.0426649     0.087901593
      3429.59       1.0789203     0.074820344
      3433.02       1.1110244     0.064438376
      3436.45       1.1459215     0.054773838
      3439.89       1.1857384     0.048704872
      3443.33       1.2253861     0.043986824
      3446.78       1.2725705     0.040320290
      3450.22       1.2966108     0.037490775
      3453.67       1.3193686     0.035657785
      3457.13       1.3528027     0.033830267
      3460.58       1.3789360     0.032390775
      3464.04       1.3996509     0.031245497
      3467.51       1.4167232     0.030086072
      3470.98       1.4338048     0.029346584
      3474.45       1.4365964     0.028728033
      3477.92       1.4368918     0.028203352
      3481.40       1.4218950     0.027604836
      3484.88       1.4307510     0.027191776
      3488.37       1.4222313     0.027097252
      3491.86       1.4228024     0.027005930
      3495.35       1.4243769     0.027054739
      3498.84       1.3926226     0.026790071
      3502.34       1.3863173     0.026836879
      3505.84       1.3813604     0.026884100
      3509.35       1.3650240     0.026793898
      3512.86       1.3512260     0.026669273
      3516.37       1.3304336     0.026578351
      3519.89       1.3015368     0.026628989
      3523.41       1.2786953     0.026677254
      3526.93       1.2571947     0.026413311
      3530.46       1.2517095     0.026462261
      3533.99       1.2430872     0.026373186
      3537.53       1.2303156     0.026248786
      3541.06       1.2246307     0.026299280
      3544.60       1.2331661     0.026213456
      3548.15       1.2226461     0.026262266
      3551.70       1.2358986     0.026140328
      3555.25       1.2500770     0.026048700
      3558.80       1.2749716     0.026104604
      3562.36       1.2821010     0.026158779
      3565.92       1.2892313     0.025891348
      3569.49       1.2925330     0.025945522
      3573.06       1.3006795     0.026003481
      3576.64       1.2960835     0.025733805
      3580.21       1.3029243     0.025790464
      3583.79       1.3075727     0.025849300
      3587.38       1.3206607     0.025759601
      3590.96       1.3163050     0.025637011
      3594.55       1.3188805     0.025696563
      3598.15       1.3221482     0.025612405
      3601.75       1.3340722     0.025485011
      3605.35       1.3183795     0.025547433
      3608.96       1.3180297     0.025457276
      3612.56       1.3320102     0.025336392
      3616.18       1.3371240     0.025398599
      3619.79       1.3383711     0.025314797
      3623.41       1.3291946     0.025374657
      3627.04       1.3219735     0.025253289
      3630.66       1.3095484     0.025319856
      3634.29       1.2917292     0.025236424
      3637.93       1.2782217     0.025109091
      3641.57       1.2755535     0.025177689
      3645.21       1.2644505     0.025088783
      3648.86       1.2632540     0.024967291
      3652.50       1.2596428     0.025038628
      3656.16       1.2435806     0.025110208
      3659.81       1.2256917     0.024829392
      3663.47       1.2143507     0.024899597
      3667.14       1.1964213     0.024977053
      3670.80       1.1806834     0.024853165
      3674.48       1.1671606     0.024767945
      3678.15       1.1544700     0.024840163
      3681.83       1.1646507     0.024721623
      3685.51       1.1823824     0.024799228
      3689.20       1.2037165     0.024717035
      3692.88       1.2299511     0.024590121
      3696.58       1.2534868     0.024669966
      3700.27       1.2795205     0.024756022
      3703.98       1.3012861     0.024460071
      3707.68       1.3473887     0.024547504
      3711.39       1.3914305     0.024628643
      3715.10       1.4018665     0.024510162
      3718.81       1.4130948     0.024598191
      3722.53       1.4279211     0.024517805
      3726.26       1.4287830     0.024389444
      3729.98       1.4180653     0.024477348
      3733.71       1.4013818     0.024360637
      3737.45       1.3847963     0.024451396
      3741.18       1.3593540     0.024369830
      3744.93       1.3227281     0.024242903
      3748.67       1.2613811     0.024337204
      3752.42       1.1962775     0.024441627
      3756.17       1.1384758     0.024317247
      3759.93       1.0712571     0.024421335
      3763.69       1.0150019     0.024108576
      3767.45      0.96546993     0.024208129
      3771.22      0.92169564     0.024319285
      3774.99      0.87000968     0.024194585
      3778.77      0.81760653     0.024303846
      3782.54      0.77484104     0.024419666
      3786.33      0.73186137     0.024090884
      3790.11      0.69688159     0.024211225
      3793.90      0.66673731     0.024085175
      3797.70      0.63464214     0.024199382
      3801.50      0.62913342     0.024325156
      3805.30      0.60824240     0.024199993
      3809.10      0.59381481     0.024325199
      3812.91      0.59328180     0.023990448
      3816.73      0.59789162     0.023868300
      3820.54      0.59576514     0.023785548
      3824.36      0.60550158     0.023659374
      3828.19      0.61452262     0.023539688
      3832.02      0.62095550     0.023456261
      3835.85      0.64414201     0.023332421
      3839.68      0.67043974     0.023010090
      3843.52      0.68341548     0.023131327
      3847.37      0.70033747     0.023009825
      3851.22      0.74313877     0.022691684
      3855.07      0.78996781     0.022810974
      3858.92      0.84711119     0.022690253
      3862.78      0.90170587     0.022376399
      3866.64      0.96095784     0.022266754
      3870.51       1.0236634     0.022374983
      3874.38       1.0692581     0.022064368
      3878.26       1.1130067     0.021955352
      3882.13       1.1647429     0.022063192
      3886.02       1.2085441     0.021756125
      3889.90       1.2505199     0.021647594
      3893.79       1.3228438     0.021543197
      3897.69       1.3738918     0.021451238
      3901.59       1.4021487     0.021343028
      3905.49       1.4362769     0.021238691
      3909.39       1.4676699     0.021150650
      3913.30       1.4829261     0.021042223
      3917.22       1.4830739     0.020937486
      3921.13       1.5150053     0.020652001
      3925.06       1.5532348     0.020745425
      3928.98       1.5703503     0.020640376
      3932.91       1.5894496     0.020362666
      3936.84       1.6030160     0.020254696
      3940.78       1.6172022     0.020347276
      3944.72       1.6346431     0.020244601
      3948.67       1.6423320     0.019969391
      3952.61       1.6644547     0.019863856
      3956.57       1.6689587     0.019955233
      3960.52       1.6886829     0.019689385
      3964.48       1.7066517     0.019583335
      3968.45       1.7318083     0.019480033
      3972.42       1.7404581     0.019379424
      3976.39       1.7517862     0.019308084
      3980.37       1.7670171     0.019204041
      3984.35       1.7634908     0.019102608
      3988.33       1.7564415     0.018843296
      3992.32       1.7499090     0.018933800
      3996.31       1.7596224     0.018831548
      4000.31       1.7605828     0.018731613
      4004.31       1.7467746     0.018476245
      4008.31       1.7345706     0.018381317
      4012.32       1.7186355     0.018465981
      4016.33       1.7072743     0.018366769
      4020.35       1.6892318     0.018115982
      4024.37       1.6799795     0.018021440
      4028.40       1.6614644     0.017928877
      4032.42       1.6299562     0.017838222
      4036.46       1.6038245     0.017761902
      4040.50       1.5670375     0.017668182
      4044.54       1.5479154     0.017576128
      4048.58       1.5242532     0.017485656
      4052.63       1.5002141     0.017396495
      4056.68       1.4723196     0.017322079
      4060.74       1.4378330     0.017230065
      4064.80       1.4200924     0.017139955
      4068.86       1.4018807     0.017051125
      4072.93       1.3838341     0.016823691
      4077.01       1.3639977     0.016733346
      4081.08       1.3479558     0.016644041
      4085.17       1.3378388     0.016713060
      4089.25       1.3271152     0.016625635
      4093.34       1.3145049     0.016406918
      4097.43       1.3104033     0.016317566
      4101.53       1.3177989     0.016229770
      4105.63       1.3119212     0.016143049
      4109.74       1.3079826     0.016057303
      4113.85       1.3009304     0.016000986
      4117.96       1.2902148     0.015913158
      4122.08       1.2968964     0.015826702
      4126.20       1.2776546     0.015741184
      4130.33       1.2762613     0.015656587
      4134.46       1.2573224     0.015572636
      4138.59       1.2482880     0.015364740
      4142.73       1.2470298     0.015283223
      4146.88       1.2363339     0.015202791
      4151.02       1.2324732     0.015267333
      4155.18       1.2439675     0.015184534
      4159.33       1.2523815     0.015102863
      4163.49       1.2538421     0.015021835
      4167.65       1.2618614     0.014820557
      4171.82       1.2733465     0.014741546
      4175.99       1.2894195     0.014663248
      4180.17       1.3032378     0.014585577
      4184.35       1.3152624     0.014508421
      4188.54       1.3154424     0.014432163
      4192.72       1.3166800     0.014356319
      4196.92       1.3204240     0.014165258
      4201.11       1.3156887     0.014088854
      4205.31       1.3025050     0.014142481
      4209.52       1.3006070     0.014066839
      4213.73       1.2845963     0.013991835
      4217.94       1.2761861     0.013917175
      4222.16       1.2741285     0.013843310
      4226.38       1.2712431     0.013769861
      4230.61       1.2746407     0.013696815
      4234.84       1.2736513     0.013519536
      4239.08       1.2707858     0.013446371
      4243.32       1.2714245     0.013373933
      4247.56       1.2780634     0.013302024
      4251.81       1.2748760     0.013230619
      4256.06       1.2773908     0.013159647
      4260.32       1.2789013     0.013089061
      4264.58       1.2795183     0.013018890
      4268.84       1.2727437     0.012949274
      4273.11       1.2682102     0.012880103
      4277.38       1.2615247     0.012811367
      4281.66       1.2506317     0.012743242
      4285.94       1.2509552     0.012576785
      4290.23       1.2537337     0.012509721
      4294.52       1.2464912     0.012443130
      4298.81       1.2451411     0.012377059
      4303.11       1.2429062     0.012311092
      4307.42       1.2370422     0.012245665
      4311.72       1.2396326     0.012180622
      4316.04       1.2331226     0.012115897
      4320.35       1.2277977     0.012051464
      4324.67       1.2252623     0.011987401
      4329.00       1.2231953     0.011923714
      4333.33       1.2100317     0.011860410
      4337.66       1.1981610     0.011797600
      4342.00       1.1814434     0.011735178
      4346.34       1.1617691     0.011672879
      4350.69       1.1373891     0.011610990
      4355.04       1.1094460     0.011549677
      4359.39       1.0815283     0.011488446
      4363.75       1.0595013     0.011427751
      4368.12       1.0331902     0.011367485
      4372.48       1.0120531     0.011307564
      4376.86      0.98711002     0.011247747
      4381.23      0.97282909     0.011089543
      4385.61      0.95086188     0.011031227
      4390.00      0.93860997     0.010973308
      4394.39      0.93891741     0.010915702
      4398.79      0.93154994     0.010858481
      4403.18      0.93640467     0.010801633
      4407.59      0.93991576     0.010745244
      4412.00      0.94316025     0.010689381
      4416.41      0.94784808     0.010633719
      4420.82      0.95539058     0.010578410
      4425.25      0.96724425     0.010523775
      4429.67      0.97512340     0.010469550
      4434.10      0.97674032     0.010415549
      4438.54      0.97473888     0.010268460
      4442.97      0.98067365     0.010214952
      4447.42      0.98437212     0.010161857
      4451.86      0.99081664     0.010109171
      4456.32      0.99891217     0.010056836
      4460.77       1.0075653     0.010004982
      4465.24       1.0140278    0.0099536062
      4469.70       1.0231841    0.0099026277
      4474.17       1.0329688    0.0098418490
      4478.65       1.0466525    0.0097905676
      4483.12       1.0577705    0.0097397742
      4487.61       1.0770795    0.0096894051
      4492.09       1.0906181    0.0096395044
      4496.59       1.1171208    0.0095900742
      4501.08       1.1417969    0.0095413146
      4505.58       1.1688381    0.0094930458
      4510.09       1.1962446    0.0093642885
      4514.60       1.2154514    0.0093173236
      4519.12       1.2382160    0.0092710647
      4523.63       1.2587064    0.0092253318
      4528.16       1.2812208    0.0092448610
      4532.69       1.2983027    0.0091980278
      4537.22       1.3188911    0.0090737727
      4541.76       1.3304550    0.0090287006
      4546.30       1.3468891    0.0089841986
      4550.85       1.3628599    0.0089400852
      4555.40       1.3750552    0.0088967488
      4559.95       1.3832868    0.0087757759
      4564.51       1.3863818    0.0087322329
      4569.08       1.3937302    0.0087530355
      4573.65       1.4013765    0.0087104052
      4578.22       1.4048546    0.0086683079
      4582.80       1.4162068    0.0085529194
      4587.38       1.4162963    0.0085105483
      4591.97       1.4162109    0.0084689533
      4596.56       1.4238672    0.0084281471
      4601.16       1.4233913    0.0084496110
      4605.76       1.4273568    0.0083385118
      4610.37       1.4281145    0.0082976326
      4614.98       1.4293033    0.0082575652
      4619.59       1.4282079    0.0082180605
      4624.21       1.4317091    0.0081792862
      4628.84       1.4373475    0.0081322127
      4633.47       1.4463889    0.0080928696
      4638.10       1.4563795    0.0080543072
      4642.74       1.4598354    0.0080165059
      4647.38       1.4597101    0.0079135706
      4652.03       1.4599194    0.0078776410
      4656.68       1.4601104    0.0078964637
      4661.34       1.4550690    0.0078596800
      4666.00       1.4498893    0.0077591698
      4670.67       1.4482177    0.0077242982
      4675.33       1.4371697    0.0076901848
      4680.01       1.4275157    0.0076445902
      4684.69       1.4224704    0.0076099623
      4689.38       1.4103302    0.0075762987
      4694.07       1.4038329    0.0075433744
      4698.76       1.3934178    0.0074995894
      4703.46       1.3822045    0.0074661808
      4708.16       1.3690345    0.0074336971
      4712.87       1.3630484    0.0074021612
      4717.58       1.3547205    0.0073074594
      4722.30       1.3428374    0.0073279162
      4727.03       1.3346939    0.0072967363
      4731.75       1.3163196    0.0072051875
      4736.48       1.2921432    0.0071738441
      4741.22       1.2718428    0.0071948585
      4745.96       1.2465345    0.0071060817
      4750.71       1.2194861    0.0070751783
      4755.46       1.1914527    0.0070452465
      4760.22       1.1661866    0.0070097616
      4764.97       1.1410321    0.0069794320
      4769.74       1.1093116    0.0069501476
      4774.51       1.0793337    0.0068669423
      4779.29       1.0454472    0.0068866934
      4784.07       1.0155896    0.0068580724
      4788.85      0.99055721    0.0067764101
      4793.64      0.96419600    0.0067968938
      4798.43      0.93804983    0.0067689967
      4803.23      0.91780394    0.0066887654
      4808.03      0.90483616    0.0066633402
      4812.84      0.89456094    0.0066825960
      4817.66      0.89177353    0.0066041077
      4822.48      0.88530286    0.0065793822
      4827.30      0.88343395    0.0065469574
      4832.12      0.88917374    0.0065219729
      4836.96      0.89409113    0.0064981533
      4841.79      0.89770681    0.0064666816
      4846.63      0.89909830    0.0064428015
      4851.48      0.90311054    0.0064200441
      4856.33      0.90653631    0.0063892695
      4861.19      0.89913832    0.0063663478
      4866.05      0.89364065    0.0062931676
      4870.92      0.88197433    0.0063145866
      4875.79      0.87588089    0.0062927690
      4880.66      0.87088243    0.0062205347
      4885.55      0.85560480    0.0062426289
      4890.43      0.84719838    0.0061724406
      4895.32      0.84327186    0.0061505288
      4900.22      0.84548504    0.0061258851
      4905.12      0.84931447    0.0061038687
      4910.02      0.85596970    0.0060831994
      4914.94      0.86584397    0.0060587709
      4919.85      0.88888785    0.0060381083
      4924.77      0.91667689    0.0060152352
      4929.70      0.94880886    0.0059944683
      4934.62      0.98771682    0.0059299142
      4939.56       1.0255943    0.0059522163
      4944.50       1.0634947    0.0058881272
      4949.44       1.0956367    0.0058705196
      4954.39       1.1278455    0.0058920906
      4959.35       1.1611256    0.0058300187
      4964.31       1.1860453    0.0058524783
      4969.27       1.2042193    0.0057909318
      4974.24       1.2239069    0.0057749922
      4979.22       1.2319402    0.0057531028
      4984.20       1.2365618    0.0057373625
      4989.18       1.2345786    0.0057165081
      4994.17       1.2271708    0.0057009837
      4999.16       1.2061532    0.0056811136
      5004.16       1.1785257    0.0056657835
      5009.17       1.1493571    0.0056075986
      5014.18       1.1251291    0.0056318268
      5019.19       1.0904904    0.0055745813
      5024.21       1.0618108    0.0055989492
      5029.23       1.0272323    0.0055426464
      5034.26      0.99283393    0.0055671318
      5039.30      0.95743546    0.0055117245
      5044.34      0.93066152    0.0054978126
      5049.39      0.90851973    0.0054818372
      5054.43      0.89289708    0.0054683480
      5059.49      0.88045738    0.0054529824
      5064.55      0.87732480    0.0054006766
      5069.61      0.88274809    0.0054252074
      5074.68      0.89443385    0.0053736092
      5079.76      0.91095203    0.0053983078
      5084.84      0.92551671    0.0053475806
      5089.92      0.94519879    0.0053724595
      5095.01      0.96442944    0.0053225172
      5100.11      0.98437084    0.0053476676
      5105.21       1.0034745    0.0052984947
      5110.31       1.0247622    0.0052855917
      5115.42       1.0384869    0.0052755019
      5120.54       1.0527248    0.0052629504
      5125.66       1.0622530    0.0052535469
      5130.79       1.0704718    0.0052413156
      5135.92       1.0760140    0.0052325979
      5141.05       1.0820762    0.0052207088
      5146.20       1.0827226    0.0051741567
      5151.34       1.0812876    0.0052010518
      5156.49       1.0746883    0.0051548172
      5161.65       1.0681855    0.0051824560
      5166.81       1.0655786    0.0051365126
      5171.98       1.0604342    0.0051276258
      5177.15       1.0568331    0.0051549094
      5182.33       1.0458024    0.0051104246
      5187.51       1.0438745    0.0051028850
      5192.70       1.0423578    0.0050942740
      5197.89       1.0417847    0.0050867974
      5203.09       1.0410339    0.0050791455
      5208.29       1.0453408    0.0050716896
      5213.50       1.0505006    0.0050303162
      5218.72       1.0629830    0.0050577110
      5223.93       1.0713673    0.0050513303
      5229.16       1.0807026    0.0050102581
      5234.39       1.0914827    0.0050384562
      5239.62       1.1042540    0.0049985765
      5244.86       1.1107933    0.0049922718
      5250.11       1.1236444    0.0050211818
      5255.36       1.1334672    0.0049818076
      5260.61       1.1508420    0.0049763181
