# starting wavelength =        3500.1600
# ending wavelength =        8739.1000
# O2 telluric scale =        0
# O2 telluric shift =        0
# H2O telluric scale =        0
# H2O telluric shift =        0
      3502.34       1.1698056     0.099857532
      3505.84       1.1466973     0.076543637
      3509.35       1.1208429     0.066563208
      3512.86       1.1000778     0.063525741
      3516.37       1.0904835     0.051960047
      3519.89       1.0914098     0.050302886
      3523.41       1.0845809     0.045690842
      3526.93       1.0897543     0.040275610
      3530.46       1.0890377     0.039403793
      3533.99       1.0958393     0.036067047
      3537.53       1.0883081     0.034775295
      3541.06       1.0880851     0.034099226
      3544.60       1.0678988     0.032452151
      3548.15       1.0544743     0.031954305
      3551.70       1.0284230     0.031325091
      3555.25       1.0088496     0.030414154
      3558.80      0.99295288     0.029832463
      3562.36      0.97323264     0.029673378
      3565.92      0.95003784     0.029114300
      3569.49      0.92642858     0.029022375
      3573.06      0.90231986     0.028940589
      3576.64      0.87421984     0.029391899
      3580.21      0.84192702     0.028849686
      3583.79      0.78249476     0.028755454
      3587.38      0.74731937     0.029188918
      3590.96      0.71600156     0.029114264
      3594.55      0.68682941     0.029050468
      3598.15      0.65721757     0.028996577
      3601.75      0.63892343     0.028918981
      3605.35      0.61136939     0.028839980
      3608.96      0.58544073     0.028771106
      3612.56      0.54792804     0.028712419
      3616.18      0.50912480     0.029173518
      3619.79      0.49058865     0.028568981
      3623.41      0.47099044     0.028495474
      3627.04      0.47277468     0.028431644
      3630.66      0.45829998     0.028907105
      3634.29      0.47099980     0.028817593
      3637.93      0.48676429     0.028737537
      3641.57      0.49539532     0.028154128
      3645.21      0.50606316     0.028645697
      3648.86      0.52644371     0.028550724
      3652.50      0.53975370     0.028465829
      3656.16      0.54581127     0.028390781
      3659.81      0.56274859     0.028873051
      3663.47      0.56152677     0.028292533
      3667.14      0.56453832     0.028202019
      3670.80      0.56468116     0.028120882
      3674.48      0.58115837     0.028589689
      3678.15      0.59561899     0.028527923
      3681.83      0.60868870     0.028476439
      3685.51      0.63209797     0.027857501
      3689.20      0.64138793     0.028313187
      3692.88      0.66247102     0.028242837
      3696.58      0.67835759     0.028182137
      3700.27      0.68803007     0.028131834
      3703.98      0.69385870     0.028602410
      3707.68      0.71256410     0.027967022
      3711.39      0.72806862     0.027898236
      3715.10      0.74142517     0.027838651
      3718.81      0.75184928     0.028340358
      3722.53      0.76367410     0.028252186
      3726.26      0.76988003     0.028173682
      3729.98      0.77463673     0.027555567
      3733.71      0.78115329     0.028090784
      3737.45      0.79650183     0.027993391
      3741.18      0.82259633     0.027905463
      3744.93      0.83831985     0.027826968
      3748.67      0.84523949     0.028330195
      3752.42      0.84360675     0.028271867
      3756.17      0.84503157     0.027652276
      3759.93      0.84387080     0.027563572
      3763.69      0.84287343     0.028048585
      3767.45      0.83039642     0.027977109
      3771.22      0.82427993     0.027915268
      3774.99      0.81906714     0.027863123
      3778.77      0.81781269     0.028391004
      3782.54      0.81981946     0.027700294
      3786.33      0.82581976     0.027626509
      3790.11      0.84036134     0.027562039
      3793.90      0.85986399     0.027507034
      3797.70      0.88319511     0.028045974
      3801.50      0.89877958     0.027958294
      3805.30      0.90860968     0.027880130
      3809.10      0.92918713     0.027214458
      3812.91      0.94377837     0.027808206
      3816.73      0.97000229     0.027707271
      3820.54      0.98697819     0.027615610
      3824.36       1.0025242     0.027532996
      3828.19       1.0194939     0.027459217
      3832.02       1.0386258     0.028003142
      3835.85       1.0625801     0.027949056
      3839.68       1.0754136     0.027281177
      3843.52       1.0841656     0.027193512
      3847.37       1.1056611     0.027713543
      3851.22       1.1172035     0.027642394
      3855.07       1.1376693     0.027580608
      3858.92       1.1596076     0.027528060
      3862.78       1.1781421     0.027484876
      3866.64       1.1990809     0.028034375
      3870.51       1.2179633     0.027954283
      3874.38       1.2434669     0.027221326
      3878.26       1.2706242     0.027160142
      3882.13       1.2906645     0.027793677
      3886.02       1.3297235     0.027695550
      3889.90       1.3620787     0.027606711
      3893.79       1.3876919     0.027526906
      3897.69       1.4137021     0.027456020
      3901.59       1.4393683     0.028054142
      3905.49       1.4581074     0.028003786
      3909.39       1.4614392     0.027275598
      3913.30       1.4738034     0.027186242
      3917.22       1.4897078     0.027104221
      3921.13       1.5013154     0.027679241
      3925.06       1.5068782     0.027615268
      3928.98       1.5117272     0.027561243
      3932.91       1.5044015     0.027516833
      3936.84       1.4977202     0.027482060
      3940.78       1.4973902     0.028072891
      3944.72       1.4866281     0.027995305
      3948.67       1.4626792     0.027184901
      3952.61       1.4379514     0.027125864
      3956.57       1.4199765     0.027843876
      3960.52       1.3968337     0.027741857
      3964.48       1.3888064     0.027648862
      3968.45       1.3893124     0.027564826
      3972.42       1.3871740     0.027489469
      3976.39       1.3737527     0.028141310
      3980.37       1.3590895     0.028085564
      3984.35       1.3522730     0.028040253
      3988.33       1.3452311     0.028005390
      3992.32       1.3299095     0.027143215
      3996.31       1.3161412     0.027765560
      4000.31       1.3060749     0.027691239
      4004.31       1.3053447     0.027627185
      4008.31       1.3086593     0.027570842
      4012.32       1.3129767     0.027523676
      4016.33       1.3027286     0.027485926
      4020.35       1.2893826     0.028195816
      4024.37       1.2499829     0.028107701
      4028.40       1.2186896     0.028029063
      4032.42       1.2081917     0.027959664
      4036.46       1.1992434     0.027057695
      4040.50       1.1866350     0.027005657
      4044.54       1.1765159     0.026961798
      4048.58       1.1704745     0.027692217
      4052.63       1.1543747     0.027600380
      4056.68       1.1342795     0.027517121
      4060.74       1.1274756     0.027440698
      4064.80       1.1256072     0.026549515
      4068.86       1.1221537     0.026491152
      4072.93       1.1014672     0.026440296
      4077.01       1.0853984     0.026396721
      4081.08       1.0902292     0.027111603
      4085.17       1.0937352     0.027022782
      4089.25       1.0991976     0.026941264
      4093.34       1.1000618     0.026866741
      4097.43       1.0911901     0.025991742
      4101.53       1.0730541     0.025931455
      4105.63       1.0813566     0.025877009
      4109.74       1.0990805     0.025828579
      4113.85       1.1168731     0.025786444
      4117.96       1.1294224     0.025750378
      4122.08       1.1345902     0.026375046
      4126.20       1.1440113     0.026297254
      4130.33       1.1597720     0.025436602
      4134.46       1.1758225     0.025371824
      4138.59       1.1930059     0.025315272
      4142.73       1.2185874     0.025261274
      4146.88       1.2383508     0.025213116
      4151.02       1.2480327     0.025170547
      4155.18       1.2589521     0.025133283
      4159.33       1.2568686     0.025101437
      4163.49       1.2528488     0.024903330
      4167.65       1.2376533     0.024833986
      4171.82       1.2165310     0.024768717
      4175.99       1.1831979     0.024708545
      4180.17       1.1560020     0.024651922
      4184.35       1.1518231     0.024599768
      4188.54       1.1536446     0.024551793
      4192.72       1.1477532     0.024508186
      4196.92       1.1344445     0.024468754
      4201.11       1.1293208     0.024433742
      4205.31       1.1284891     0.023627676
      4209.52       1.1226834     0.024173462
      4213.73       1.1156263     0.024109483
      4217.94       1.1080521     0.024047784
      4222.16       1.1138914     0.023991673
      4226.38       1.1229082     0.023937829
      4230.61       1.1267233     0.023887440
      4234.84       1.1233595     0.023840435
      4239.08       1.1138531     0.023796925
      4243.32       1.1055118     0.023756585
      4247.56       1.1043923     0.023008850
      4251.81       1.1112845     0.022940643
      4256.06       1.1213760     0.022875090
      4260.32       1.1236134     0.023405862
      4264.58       1.1423476     0.023344772
      4268.84       1.1495477     0.023286448
      4273.11       1.1469606     0.023230952
      4277.38       1.1411232     0.023178022
      4281.66       1.1290316     0.023127665
      4285.94       1.1119979     0.023079947
      4290.23       1.1010071     0.023034604
      4294.52       1.1044726     0.022350032
      4298.81       1.0925144     0.022281441
      4303.11       1.0863089     0.022214998
      4307.42       1.0939308     0.022150630
      4311.72       1.0923009     0.022088085
      4316.04       1.0743201     0.022027462
      4320.35       1.0680299     0.021968677
      4324.67       1.0662680     0.021911584
      4329.00       1.0661949     0.022427536
      4333.33       1.0738270     0.022373876
      4337.66       1.0864484     0.022321918
      4342.00       1.0870262     0.022271721
      4346.34       1.0850312     0.021663567
      4350.69       1.0782397     0.021595579
      4355.04       1.0627712     0.021528016
      4359.39       1.0428088     0.021462567
      4363.75       1.0276601     0.021398936
      4368.12       1.0248477     0.021336894
      4372.48       1.0302518     0.021276280
      4376.86       1.0325324     0.021216922
      4381.23       1.0332321     0.021158717
      4385.61       1.0413657     0.021101659
      4390.00       1.0527101     0.021045316
      4394.39       1.0552225     0.020990198
      4398.79       1.0595447     0.020935817
      4403.18       1.0811695     0.020882380
      4407.59       1.0986454     0.020829812
      4412.00       1.1100846     0.020222073
      4416.41       1.1255166     0.020771297
      4420.82       1.1447231     0.020706363
      4425.25       1.1487358     0.020642823
      4429.67       1.1511609     0.020580775
      4434.10       1.1525840     0.020518731
      4438.54       1.1509854     0.020459012
      4442.97       1.1623425     0.020399415
      4447.42       1.1809433     0.020340689
      4451.86       1.1972746     0.020282771
      4456.32       1.2156656     0.020224732
      4460.77       1.2423524     0.020168048
      4465.24       1.2672574     0.020112526
      4469.70       1.2854399     0.020057938
      4474.17       1.2969465     0.020004110
      4478.65       1.3066880     0.019950891
      4483.12       1.3164459     0.019898170
      4487.61       1.3216423     0.019845889
      4492.09       1.3278860     0.019793905
      4496.59       1.3387668     0.019740274
      4501.08       1.3446464     0.019691023
      4505.58       1.3550985     0.019114663
      4510.09       1.3602323     0.019065002
      4514.60       1.3737300     0.019015617
      4519.12       1.3880269     0.018966571
      4523.63       1.4007613     0.018917918
      4528.16       1.4133073     0.018869656
      4532.69       1.4273416     0.018821882
      4537.22       1.4422796     0.018774787
      4541.76       1.4505187     0.018728304
      4546.30       1.4562871     0.018681216
      4550.85       1.4574577     0.018634344
      4555.40       1.4486551     0.018587634
      4559.95       1.4354100     0.018541179
      4564.51       1.4256232     0.018494116
      4569.08       1.4101060     0.018447648
      4573.65       1.3950197     0.018401731
      4578.22       1.3956145     0.018356040
      4582.80       1.3991749     0.018310535
      4587.38       1.4001595     0.018265228
      4591.97       1.3976834     0.018219884
      4596.56       1.3893750     0.018174487
      4601.16       1.3744554     0.018129056
      4605.76       1.3564009     0.018083570
      4610.37       1.3453398     0.018038063
      4614.98       1.3399152     0.017992365
      4619.59       1.3395927     0.017946612
      4624.21       1.3352977     0.017900928
      4628.84       1.3157331     0.017855181
      4633.47       1.2900654     0.017809511
      4638.10       1.2619310     0.017764023
      4642.74       1.2327264     0.017718783
      4647.38       1.2068442     0.017674027
      4652.03       1.1814263     0.017629937
      4656.68       1.1544776     0.017584503
      4661.34       1.1356383     0.017539520
      4666.00       1.1158167     0.017494489
      4670.67       1.0890660     0.017449501
      4675.33       1.0625216     0.017404675
      4680.01       1.0336321     0.017359807
      4684.69       1.0048617     0.017315018
      4689.38      0.98163073     0.017270296
      4694.07      0.95946054     0.017225652
      4698.76      0.93768449     0.017181203
      4703.46      0.92274099     0.017136763
      4708.16      0.90716908     0.017092428
      4712.87      0.88628398     0.017048310
      4717.58      0.86005042     0.017004232
      4722.30      0.83224108     0.016960298
      4727.03      0.81036776     0.016916532
      4731.75      0.79823298     0.016872952
      4736.48      0.79390011     0.016829610
      4741.22      0.78970082     0.016786405
      4745.96      0.78594124     0.016743413
      4750.71      0.78018434     0.016700724
      4755.46      0.76936024     0.016658213
      4760.22      0.76706770     0.016615964
      4764.97      0.76950436     0.016574044
      4769.74      0.77347103     0.016531785
      4774.51      0.77543488     0.016490252
      4779.29      0.77424614     0.016449336
      4784.07      0.77385177     0.016408963
      4788.85      0.77680518     0.015992102
      4793.64      0.78351519     0.015953769
      4798.43      0.78593000     0.015915650
      4803.23      0.78858195     0.015878029
      4808.03      0.78936342     0.015840596
      4812.84      0.78743778     0.015803610
      4817.66      0.78958852     0.015766860
      4822.48      0.79813267     0.015730490
      4827.30      0.80549506     0.015694540
      4832.12      0.80476135     0.015659056
      4836.96      0.79843094     0.015624105
      4841.79      0.79363280     0.015589746
      4846.63      0.79443215     0.015555482
      4851.48      0.80407726     0.015522353
      4856.33      0.81487522     0.015490327
      4861.19      0.82363427     0.015459479
      4866.05      0.82986882     0.015428874
      4870.92      0.84304294     0.015399010
      4875.79      0.86459609     0.015369881
      4880.66      0.88076776     0.014937422
      4885.55      0.90171200     0.015271014
      4890.43      0.92170209     0.015234381
      4895.32      0.94009176     0.015198188
      4900.22      0.95802505     0.015162579
      4905.12      0.97518156     0.015127631
      4910.02      0.98969284     0.015093412
      4914.94      0.99651848     0.015059979
      4919.85      0.99499840     0.015027417
      4924.77      0.99547738     0.014995793
      4929.70      0.99486690     0.014965210
      4934.62      0.99483292     0.014935759
      4939.56      0.99765945     0.014907556
      4944.50       1.0004091     0.014879820
      4949.44      0.99518926     0.014853114
      4954.39      0.97726938     0.014457021
      4959.35      0.96981335     0.014421559
      4964.31      0.96382231     0.014387006
      4969.27      0.95939379     0.014353409
      4974.24      0.95455805     0.014320833
      4979.22      0.95200469     0.014644485
      4984.20      0.95353185     0.014612460
      4989.18      0.96032238     0.014581921
      4994.17      0.97295016     0.014552795
      4999.16      0.98558771     0.014525040
      5004.16      0.99800236     0.014498615
      5009.17       1.0118505     0.014473514
      5014.18       1.0229904     0.014109190
      5019.19       1.0376181     0.014073866
      5024.21       1.0564625     0.014039697
      5029.23       1.0746900     0.014006666
      5034.26       1.0879993     0.013974815
      5039.30       1.0991110     0.013944208
      5044.34       1.1067686     0.013914860
      5049.39       1.1138598     0.013886843
      5054.43       1.1276600     0.014205499
      5059.49       1.1381350     0.014179699
      5064.55       1.1548354     0.013846214
      5069.61       1.1677089     0.013809670
      5074.68       1.1771024     0.013774813
      5079.76       1.1945297     0.013741765
      5084.84       1.2155657     0.013709836
      5089.92       1.2320349     0.013679482
      5095.01       1.2456055     0.013650718
      5100.11       1.2573565     0.013623603
      5105.21       1.2695333     0.013598182
      5110.31       1.2749169     0.013290763
      5115.42       1.2852274     0.013594203
      5120.54       1.2973937     0.013557844
      5125.66       1.3007538     0.013523458
      5130.79       1.2997540     0.013490872
      5135.92       1.3043583     0.013460218
      5141.05       1.3105160     0.013431488
      5146.20       1.3160483     0.013404689
      5151.34       1.3230882     0.013379879
      5156.49       1.3280922     0.013078571
      5161.65       1.3349004     0.013058297
      5166.81       1.3442918     0.013348514
      5171.98       1.3583543     0.013314467
      5177.15       1.3732993     0.013282663
      5182.33       1.3847302     0.013252971
      5187.51       1.3913684     0.013225775
      5192.70       1.4032879     0.013200273
      5197.89       1.4160186     0.012903238
      5203.09       1.4340832     0.012883338
      5208.29       1.4472283     0.012865633
      5213.50       1.4543002     0.012850129
      5218.72       1.4650952     0.013114193
      5223.93       1.4722558     0.013085159
      5229.16       1.4811079     0.013058596
      5234.39       1.5044894     0.012763378
      5239.62       1.5142211     0.012742398
      5244.86       1.5127159     0.012723799
      5250.11       1.5076356     0.012707644
      5255.36       1.5052030     0.012693937
      5260.61       1.5062583     0.012953173
      5265.87       1.5173209     0.012925519
      5271.14       1.5277167     0.012632691
      5276.41       1.5307900     0.012611893
      5281.69       1.5274013     0.012593682
      5286.97       1.5241312     0.012578090
      5292.26       1.5255302     0.012565169
      5297.55       1.5238125     0.012554465
      5302.85       1.5229860     0.012801120
      5308.15       1.5188219     0.012511427
      5313.46       1.5141426     0.012491082
      5318.77       1.5120609     0.012473558
      5324.09       1.5042490     0.012458909
      5329.42       1.4957635     0.012447209
      5334.75       1.4890956     0.012438580
      5340.08       1.4726912     0.012140566
      5345.42       1.4418267     0.012398011
      5350.77       1.4229751     0.012379700
      5356.12       1.4080814     0.012364429
      5361.48       1.3924652     0.012352285
      5366.83       1.3778569     0.012343281
      5372.20       1.3615542     0.012056929
      5377.58       1.3456989     0.012035870
