# data from http://adsabs.harvard.edu/abs/2004MNRAS.347...74P
# via WISEREP
# de-redshifted assuming z=   0.00322667
# phase in rest-frame days relative to JD =        2451278.0
# type is SNII
# phase is       23.4000
# WARNING: fake error spectrum!

       3290.3800       0.0000000      0.14074394
       3291.3800       0.0000000      0.14069919
       3292.3800       0.0000000      0.14065445
       3293.3700       0.0000000      0.14061017
       3294.3700       0.0000000      0.14056544
       3295.3700       0.0000000      0.14052073
       3296.3600       0.0000000      0.14047648
       3297.3600       0.0000000      0.14043179
       3298.3600       0.0000000      0.14038711
       3299.3500       0.0000000      0.14034288
       3300.3500       0.0000000      0.14029822
       3301.3500  -0.00047792450      0.14025357
       3302.3400     0.042053691      0.14020938
       3303.3400     0.099802401      0.14016475
       3304.3400      0.16790832      0.14012013
       3305.3300      0.23744732      0.14007596
       3306.3300      0.30709951      0.14003136
       3307.3300      0.37807094      0.13998677
       3308.3300      0.45016339      0.13994219
       3309.3200      0.52447866      0.13989806
       3310.3200      0.59648222      0.13985350
       3311.3200      0.66406825      0.13980895
       3312.3100      0.72217142      0.13976486
       3313.3100      0.77354726      0.13972032
       3314.3100      0.82303024      0.13967580
       3315.3000      0.87452119      0.13963174
       3316.3000      0.93483057      0.13958724
       3317.3000      0.98931429      0.13954275
       3318.2900       1.0308293      0.13949871
       3319.2900       1.0468419      0.13945424
       3320.2900       1.0391106      0.13940978
       3321.2800       1.0138959      0.13936577
       3322.2800      0.97600031      0.13932133
       3323.2800      0.93260518      0.13927690
       3324.2700      0.88092878      0.13923292
       3325.2700      0.82233321      0.13918851
       3326.2700      0.75539881      0.13914411
       3327.2600      0.68614950      0.13910016
       3328.2600      0.62226223      0.13905578
       3329.2600      0.57015929      0.13901141
       3330.2500      0.53702782      0.13896749
       3331.2500      0.51866323      0.13892314
       3332.2500      0.51357808      0.13887879
       3333.2400      0.52089246      0.13883491
       3334.2400      0.53565294      0.13879058
       3335.2400      0.55231012      0.13874627
       3336.2400      0.56487143      0.13870197
       3337.2300      0.56495137      0.13865812
       3338.2300      0.56870448      0.13861384
       3339.2300      0.58329997      0.13856957
       3340.2200      0.62494740      0.13852575
       3341.2200      0.68540770      0.13848150
       3342.2200      0.75109511      0.13843725
       3343.2100      0.81095685      0.13839346
       3344.2100      0.85165977      0.13834924
       3345.2100      0.88106307      0.13830503
       3346.2000      0.90056722      0.13826127
       3347.2000      0.91382364      0.13821708
       3348.2000      0.92232234      0.13817289
       3349.1900      0.92742539      0.13812916
       3350.1900      0.93096171      0.13808500
       3351.1900      0.93432538      0.13804085
       3352.1800      0.94109748      0.13799715
       3353.1800      0.95319644      0.13795301
       3354.1800      0.97677408      0.13790889
       3355.1700       1.0051158      0.13786522
       3356.1700       1.0296079      0.13782112
       3357.1700       1.0419371      0.13777702
       3358.1600       1.0320507      0.13773338
       3359.1600       1.0163835      0.13768931
       3360.1600       1.0019248      0.13764524
       3361.1500       1.0046234      0.13760163
       3362.1500       1.0172724      0.13755759
       3363.1500       1.0293330      0.13751356
       3364.1500       1.0318141      0.13746953
       3365.1400       1.0141197      0.13742596
       3366.1400      0.98886665      0.13738195
       3367.1400      0.96051849      0.13733796
       3368.1300      0.93988886      0.13729442
       3369.1300      0.92254615      0.13725044
       3370.1300      0.90239613      0.13720648
       3371.1200      0.87447643      0.13716297
       3372.1200      0.83317240      0.13711902
       3373.1200      0.78847273      0.13707509
       3374.1100      0.74502644      0.13703160
       3375.1100      0.71064799      0.13698769
       3376.1100      0.68531817      0.13694378
       3377.1000      0.66786676      0.13690033
       3378.1000      0.65770542      0.13685644
       3379.1000      0.65370227      0.13681257
       3380.0900      0.65499402      0.13676914
       3381.0900      0.66026334      0.13672529
       3382.0900      0.66807139      0.13668144
       3383.0800      0.67717759      0.13663805
       3384.0800      0.68650121      0.13659422
       3385.0800      0.69468656      0.13655041
       3386.0700      0.70044828      0.13650704
       3387.0700      0.70665763      0.13646325
       3388.0700      0.71454242      0.13641946
       3389.0600      0.72840635      0.13637612
       3390.0600      0.74434220      0.13633236
       3391.0600      0.75814218      0.13628860
       3392.0600      0.76557294      0.13624486
       3393.0500      0.76257378      0.13620156
       3394.0500      0.75783523      0.13615783
       3395.0500      0.75550113      0.13611412
       3396.0400      0.76279760      0.13607085
       3397.0400      0.77818349      0.13602715
       3398.0400      0.79910089      0.13598347
       3399.0300      0.82388714      0.13594023
       3400.0300      0.85031047      0.13589656
       3401.0300      0.87200803      0.13585290
       3402.0200      0.88450348      0.13580969
       3403.0200      0.88002711      0.13576606
       3404.0200      0.86185948      0.13572243
       3405.0100      0.83431067      0.13567925
       3406.0100      0.80126233      0.13563564
       3407.0100      0.76694782      0.13559205
       3408.0000      0.73382275      0.13554890
       3409.0000      0.70451537      0.13550532
       3410.0000      0.68462114      0.13546175
       3410.9900      0.66995146      0.13541863
       3411.9900      0.65606835      0.13537508
       3412.9900      0.63817569      0.13533155
       3413.9800      0.61209961      0.13528845
       3414.9800      0.58508668      0.13524494
       3415.9800      0.56043472      0.13520143
       3416.9700      0.54350128      0.13515836
       3417.9700      0.53449420      0.13511488
       3418.9700      0.53325745      0.13507140
       3419.9700      0.54008710      0.13502793
       3420.9600      0.55458923      0.13498491
       3421.9600      0.57301777      0.13494146
       3422.9600      0.59261081      0.13489802
       3423.9500      0.60918038      0.13485502
       3424.9500      0.62249308      0.13481161
       3425.9500      0.63250094      0.13476820
       3426.9400      0.63877169      0.13472523
       3427.9400      0.64123241      0.13468184
       3428.9400      0.64171841      0.13463846
       3429.9300      0.64118764      0.13459553
       3430.9300      0.64381591      0.13455217
       3431.9300      0.64469839      0.13450882
       3432.9200      0.63953778      0.13446591
       3433.9200      0.62370617      0.13442258
       3434.9200      0.59411934      0.13437926
       3435.9100      0.55903937      0.13433639
       3436.9100      0.52308268      0.13429309
       3437.9100      0.49309937      0.13424980
       3438.9000      0.47078854      0.13420695
       3439.9000      0.45774570      0.13416368
       3440.9000      0.45576651      0.13412042
       3441.8900      0.46574304      0.13407760
       3442.8900      0.48602864      0.13403436
       3443.8900      0.51509045      0.13399113
       3444.8800      0.55254097      0.13394834
       3445.8800      0.59370112      0.13390513
       3446.8800      0.63451211      0.13386193
       3447.8800      0.66920967      0.13381873
       3448.8700      0.69443716      0.13377598
       3449.8700      0.72209468      0.13373281
       3450.8700      0.75764339      0.13368965
       3451.8600      0.81613025      0.13364693
       3452.8600      0.88413258      0.13360379
       3453.8600      0.95011415      0.13356066
       3454.8500       1.0014580      0.13351797
       3455.8500       1.0287063      0.13347485
       3456.8500       1.0421481      0.13343175
       3457.8400       1.0452432      0.13338909
       3458.8400       1.0470338      0.13334601
       3459.8400       1.0438811      0.13330293
       3460.8300       1.0336942      0.13326030
       3461.8300       1.0140046      0.13321725
       3462.8300      0.98387870      0.13317420
       3463.8200      0.95101581      0.13313160
       3464.8200      0.91934875      0.13308858
       3465.8200      0.89923071      0.13304556
       3466.8100      0.88254027      0.13300299
       3467.8100      0.86338144      0.13295999
       3468.8100      0.83390140      0.13291701
       3469.8000      0.79049349      0.13287447
       3470.8000      0.74924701      0.13283150
       3471.8000      0.71851999      0.13278855
       3472.7900      0.71303325      0.13274603
       3473.7900      0.72796511      0.13270310
       3474.7900      0.75944033      0.13266017
       3475.7800      0.80441497      0.13261768
       3476.7800      0.85792668      0.13257478
       3477.7800      0.91033208      0.13253188
       3478.7800      0.95430914      0.13248900
       3479.7700      0.97695313      0.13244655
       3480.7700      0.98472921      0.13240368
       3481.7700      0.98289390      0.13236083
       3482.7600      0.97625610      0.13231841
       3483.7600      0.97025138      0.13227557
       3484.7600      0.97068623      0.13223275
       3485.7500      0.98178121      0.13219036
       3486.7500       1.0168311      0.13214755
       3487.7500       1.0590176      0.13210475
       3488.7400       1.0955447      0.13206239
       3489.7400       1.1107963      0.13201962
       3490.7400       1.0960563      0.13197685
       3491.7300       1.0663908      0.13193452
       3492.7300       1.0290260      0.13189177
       3493.7300      0.99522948      0.13184903
       3494.7200      0.96821144      0.13180673
       3495.7200      0.95193027      0.13176401
       3496.7200      0.95127800      0.13172131
       3497.7100      0.96795565      0.13167903
       3498.7100      0.99582419      0.13163635
       3499.7100       1.0303753      0.13159367
       3500.7000       1.0680343      0.13155142
       3501.7000       1.1008332      0.13150876
       3502.7000       1.1223901      0.13146611
       3503.6900       1.1236435      0.13142390
       3504.6900       1.1023232      0.13138127
       3505.6900       1.0744483      0.13133865
       3506.6900       1.0492528      0.13129604
       3507.6800       1.0437149      0.13125387
       3508.6800       1.0520985      0.13121128
       3509.6800       1.0715195      0.13116870
       3510.6700       1.0991898      0.13112655
       3511.6700       1.1310103      0.13108399
       3512.6700       1.1614688      0.13104144
       3513.6600       1.1856475      0.13099932
       3514.6600       1.1957705      0.13095679
       3515.6600       1.1943828      0.13091427
       3516.6500       1.1830704      0.13087218
       3517.6500       1.1629651      0.13082968
       3518.6500       1.1368552      0.13078719
       3519.6400       1.1106684      0.13074513
       3520.6400       1.0884209      0.13070266
       3521.6400       1.0796281      0.13066019
       3522.6300       1.0753116      0.13061817
       3523.6300       1.0695179      0.13057572
       3524.6300       1.0555197      0.13053329
       3525.6200       1.0286679      0.13049129
       3526.6200      0.98962124      0.13044888
       3527.6200      0.93830934      0.13040647
       3528.6100      0.87029422      0.13036450
       3529.6100      0.79759172      0.13032212
       3530.6100      0.72889236      0.13027974
       3531.6000      0.67594979      0.13023780
       3532.6000      0.64357930      0.13019545
       3533.6000      0.62155240      0.13015310
       3534.6000      0.60500201      0.13011077
       3535.5900      0.58425216      0.13006886
       3536.5900      0.56194325      0.13002655
       3537.5900      0.53834963      0.12998424
       3538.5800      0.51308760      0.12994237
       3539.5800      0.48741823      0.12990008
       3540.5800      0.46531459      0.12985781
       3541.5700      0.44939665      0.12981596
       3542.5700      0.44556297      0.12977371
       3543.5700      0.44865933      0.12973146
       3544.5600      0.45554333      0.12968965
       3545.5600      0.46279568      0.12964742
       3546.5600      0.46739482      0.12960520
       3547.5500      0.46751696      0.12956341
       3548.5500      0.46159218      0.12952122
       3549.5500      0.44536792      0.12947903
       3550.5400      0.42501775      0.12943727
       3551.5400      0.40470721      0.12939510
       3552.5400      0.38966920      0.12935294
       3553.5300      0.38303907      0.12931122
       3554.5300      0.38391324      0.12926908
       3555.5300      0.39237740      0.12922695
       3556.5200      0.40941571      0.12918525
       3557.5200      0.43122710      0.12914314
       3558.5200      0.45497612      0.12910104
       3559.5100      0.47664171      0.12905937
       3560.5100      0.49465139      0.12901729
       3561.5100      0.51159889      0.12897522
       3562.5100      0.52858221      0.12893316
       3563.5000      0.54743536      0.12889153
       3564.5000      0.56831056      0.12884949
       3565.5000      0.59156462      0.12880746
       3566.4900      0.61805828      0.12876585
       3567.4900      0.64695575      0.12872384
       3568.4900      0.67493301      0.12868184
       3569.4800      0.69956579      0.12864027
       3570.4800      0.71814269      0.12859828
       3571.4800      0.72912896      0.12855631
       3572.4700      0.73126483      0.12851477
       3573.4700      0.72267021      0.12847282
       3574.4700      0.70422121      0.12843087
       3575.4600      0.68052207      0.12838936
       3576.4600      0.65503878      0.12834743
       3577.4600      0.63179240      0.12830552
       3578.4500      0.61314132      0.12826403
       3579.4500      0.60124379      0.12822214
       3580.4500      0.59989065      0.12818025
       3581.4400      0.60807536      0.12813880
       3582.4400      0.61853853      0.12809693
       3583.4400      0.62689334      0.12805508
       3584.4300      0.62261522      0.12801365
       3585.4300      0.61447464      0.12797181
       3586.4300      0.60612110      0.12792999
       3587.4200      0.60338733      0.12788859
       3588.4200      0.60820325      0.12784678
       3589.4200      0.61709203      0.12780499
       3590.4200      0.62872993      0.12776320
       3591.4100      0.63991508      0.12772184
       3592.4100      0.65184138      0.12768007
       3593.4100      0.66418975      0.12763831
       3594.4000      0.67768278      0.12759698
       3595.4000      0.69111826      0.12755525
       3596.4000      0.70105578      0.12751352
       3597.3900      0.70576875      0.12747222
       3598.3900      0.69902863      0.12743051
       3599.3900      0.68971140      0.12738881
       3600.3800      0.68222948      0.12734754
       3601.3800      0.68387934      0.12730586
       3602.3800      0.69585041      0.12726419
       3603.3700      0.71214437      0.12722294
       3604.3700      0.72978763      0.12718129
       3605.3700      0.74184823      0.12713965
       3606.3600      0.75257870      0.12709844
       3607.3600      0.76282318      0.12705682
       3608.3600      0.77451288      0.12701520
       3609.3500      0.78785243      0.12697402
       3610.3500      0.80112165      0.12693243
       3611.3500      0.81354035      0.12689084
       3612.3400      0.82323487      0.12684969
       3613.3400      0.83159288      0.12680813
       3614.3400      0.83895330      0.12676657
       3615.3300      0.84629453      0.12672545
       3616.3300      0.85326487      0.12668391
       3617.3300      0.85813771      0.12664239
       3618.3200      0.85996022      0.12660129
       3619.3200      0.85685235      0.12655979
       3620.3200      0.85022094      0.12651829
       3621.3200      0.84064792      0.12647681
       3622.3100      0.82881754      0.12643575
       3623.3100      0.81581690      0.12639428
       3624.3100      0.80303369      0.12635283
       3625.3000      0.79166374      0.12631179
       3626.3000      0.78301796      0.12627036
       3627.3000      0.77721148      0.12622893
       3628.2900      0.77433382      0.12618793
       3629.2900      0.77540815      0.12614652
       3630.2900      0.77869508      0.12610513
       3631.2800      0.78015309      0.12606415
       3632.2800      0.77720509      0.12602278
       3633.2800      0.76322605      0.12598141
       3634.2700      0.74596008      0.12594046
       3635.2700      0.72871330      0.12589912
       3636.2700      0.71757356      0.12585778
       3637.2600      0.71318033      0.12581686
       3638.2600      0.71144734      0.12577554
       3639.2600      0.71055206      0.12573423
       3640.2500      0.70503974      0.12569335
       3641.2500      0.70095986      0.12565206
       3642.2500      0.70044188      0.12561078
       3643.2400      0.70775114      0.12556992
       3644.2400      0.72243361      0.12552866
       3645.2400      0.74024313      0.12548741
       3646.2300      0.75870492      0.12544658
       3647.2300      0.77256246      0.12540535
       3648.2300      0.78602352      0.12536413
       3649.2300      0.80029672      0.12532291
       3650.2200      0.81769698      0.12528212
       3651.2200      0.83849927      0.12524093
       3652.2200      0.86133511      0.12519975
       3653.2100      0.88546270      0.12515899
       3654.2100      0.90971179      0.12511782
       3655.2100      0.93355800      0.12507667
       3656.2000      0.95612526      0.12503594
       3657.2000      0.97713858      0.12499480
       3658.2000      0.99512716      0.12495368
       3659.1900       1.0079296      0.12491297
       3660.1900       1.0141709      0.12487187
       3661.1900       1.0104043      0.12483077
       3662.1800       1.0023277      0.12479010
       3663.1800      0.99285061      0.12474902
       3664.1800      0.98644302      0.12470796
       3665.1700      0.98419844      0.12466731
       3666.1700      0.98474200      0.12462626
       3667.1700      0.98754932      0.12458523
       3668.1600      0.99248611      0.12454461
       3669.1600      0.99667470      0.12450359
       3670.1600      0.99830538      0.12446258
       3671.1500      0.99345812      0.12442200
       3672.1500      0.98363570      0.12438101
       3673.1500      0.97365981      0.12434003
       3674.1400      0.96668947      0.12429947
       3675.1400      0.96865268      0.12425851
       3676.1400      0.97384526      0.12421756
       3677.1400      0.98000985      0.12417662
       3678.1300      0.98408334      0.12413610
       3679.1300      0.98400020      0.12409518
       3680.1300      0.97853904      0.12405427
       3681.1200      0.96644008      0.12401378
       3682.1200      0.94512620      0.12397288
       3683.1200      0.91971326      0.12393200
       3684.1100      0.89313646      0.12389154
       3685.1100      0.86939256      0.12385068
       3686.1100      0.85024652      0.12380982
       3687.1000      0.83596053      0.12376939
       3688.1000      0.82711012      0.12372856
       3689.1000      0.82544108      0.12368773
       3690.0900      0.82549863      0.12364733
       3691.0900      0.82413654      0.12360652
