# data from 
# via WISEREP
# de-redshifted assuming z=   0.00239000
# phase in rest-frame days relative to JD =        2451480.9
# type is SNII
# phase is       9.60000
# WARNING: fake error spectrum!

       4000.4400       3.1578255     0.038202857
       4002.9300       3.1171243     0.038202730
       4005.4300       3.0764164     0.038202533
       4007.9200       3.0298407     0.038202266
       4010.4200       2.9832583     0.038201929
       4012.9100       2.9832176     0.038201523
       4015.4000       2.9831836     0.038201048
       4017.9000       2.9808840     0.038200501
       4020.3900       2.9785912     0.038199887
       4022.8900       2.9980260     0.038199201
       4025.3800       3.0174676     0.038198449
       4027.8700       3.0317469     0.038197628
       4030.3700       3.0460330     0.038196734
       4032.8600       3.0688324     0.038195775
       4035.3600       3.0916318     0.038194743
       4037.8500       3.0972011     0.038193647
       4040.3400       3.1027636     0.038192482
       4042.8400       3.1235619     0.038191243
       4045.3300       3.1443602     0.038189941
       4047.8300       3.1615089     0.038188565
       4050.3200       3.1786577     0.038187126
       4052.8100       3.1962406     0.038185620
       4055.3100       3.2138235     0.038184038
       4057.8000       3.2240123     0.038182395
       4060.3000       3.2342012     0.038180678
       4062.7900       3.2432436     0.038178899
       4065.2800       3.2522860     0.038177053
       4067.7800       3.2609418     0.038175131
       4070.2700       3.2696044     0.038173149
       4072.7700       3.2733625     0.038171092
       4075.2600       3.2771205     0.038168975
       4077.7500       3.2855389     0.038166791
       4080.2500       3.2939572     0.038164531
       4082.7400       3.2930008     0.038162213
       4085.2400       3.2920443     0.038159818
       4087.7300       3.2933739     0.038157366
       4090.2200       3.2947102     0.038154847
       4092.7200       3.2939912     0.038152251
       4095.2100       3.2932789     0.038149598
       4097.7100       3.2922342     0.038146868
       4100.2000       3.2911963     0.038144082
       4102.6900       3.2788503     0.038141229
       4105.1900       3.2664975     0.038138299
       4107.6800       3.2667892     0.038135314
       4110.1800       3.2670741     0.038132251
       4112.6700       3.2632075     0.038129133
       4115.1600       3.2593341     0.038125950
       4117.6600       3.2312910     0.038122688
       4120.1500       3.2032480     0.038119373
       4122.6500       3.1999172     0.038115978
       4125.1400       3.1965797     0.038112532
       4127.6300       3.1938053     0.038109020
       4130.1300       3.1910308     0.038105428
       4132.6200       3.1687402     0.038101784
       4135.1200       3.1464495     0.038098061
       4137.6100       3.1316953     0.038094287
       4140.1000       3.1169412     0.038090448
       4142.6000       3.0953831     0.038086529
       4145.0900       3.0738319     0.038082560
       4147.5900       3.0663225     0.038078510
       4150.0800       3.0588132     0.038074411
       4152.5800       3.0537662     0.038070231
       4155.0700       3.0487125     0.038066003
       4157.5600       3.0215513     0.038061710
       4160.0600       2.9943832     0.038057335
       4162.5500       2.9801311     0.038052914
       4165.0500       2.9658857     0.038048410
       4167.5400       2.9478347     0.038043859
       4170.0300       2.9297905     0.038039245
       4172.5300       2.9215350     0.038034548
       4175.0200       2.9132862     0.038029806
       4177.5200       2.9250556     0.038024980
       4180.0100       2.9368183     0.038020110
       4182.5000       2.9339353     0.038015176
       4185.0000       2.9310590     0.038010159
       4187.4900       2.8906225     0.038005098
       4189.9900       2.8501927     0.037999953
       4192.4800       2.8387285     0.037994765
       4194.9700       2.8272643     0.037989514
       4197.4700       2.8178556     0.037984179
       4199.9600       2.8084536     0.037978802
       4202.4600       2.7773308     0.037973339
       4204.9500       2.7462080     0.037967836
       4207.4400       2.7235239     0.037962270
       4209.9400       2.7008398     0.037956619
       4212.4300       2.6755033     0.037950927
       4214.9300       2.6501737     0.037945150
       4217.4200       2.6107342     0.037939333
       4219.9100       2.5712881     0.037933454
       4222.4100       2.5439098     0.037927489
       4224.9000       2.5165314     0.037921485
       4227.4000       2.5025235     0.037915395
       4229.8900       2.4885223     0.037909267
       4232.3800       2.4823289     0.037903077
       4234.8800       2.4761356     0.037896800
       4237.3700       2.4811011     0.037890486
       4239.8700       2.4860666     0.037884085
       4242.3600       2.5036088     0.037877648
       4244.8500       2.5211510     0.037871149
       4247.3500       2.5630529     0.037864563
       4249.8400       2.6049547     0.037857941
       4252.3400       2.6632862     0.037851232
       4254.8300       2.7216177     0.037844487
       4257.3200       2.7687971     0.037837682
       4259.8200       2.8159833     0.037830788
       4262.3100       2.8686913     0.037823861
       4264.8100       2.9213925     0.037816845
       4267.3000       2.9831022     0.037809796
       4269.7900       3.0448052     0.037802687
       4272.2900       3.1041203     0.037795488
       4274.7800       3.1634354     0.037788257
       4277.2800       3.2007245     0.037780936
       4279.7700       3.2380203     0.037773585
       4282.2700       3.2810007     0.037766143
       4284.7600       3.3239811     0.037758671
       4287.2500       3.3643499     0.037751139
       4289.7500       3.4047186     0.037743516
       4292.2400       3.4225796     0.037735864
       4294.7400       3.4404407     0.037728121
       4297.2300       3.4693927     0.037720349
       4299.7200       3.4983448     0.037712517
       4302.2200       3.5076586     0.037704595
       4304.7100       3.5169724     0.037696644
       4307.2100       3.5219447     0.037688602
       4309.7000       3.5269170     0.037680532
       4312.1900       3.5455242     0.037672404
       4314.6900       3.5641314     0.037664183
       4317.1800       3.5712406     0.037655936
       4319.6800       3.5783497     0.037647597
       4322.1700       3.5663632     0.037639232
       4324.6600       3.5543835     0.037630809
       4327.1600       3.5377164     0.037622293
       4329.6500       3.5210561     0.037613752
       4332.1500       3.5106908     0.037605118
       4334.6400       3.5003324     0.037596460
       4337.1300       3.4871656     0.037587743
       4339.6300       3.4739920     0.037578933
       4342.1200       3.4595024     0.037570100
       4344.6200       3.4450128     0.037561174
       4347.1100       3.4296616     0.037552225
       4349.6000       3.4143037     0.037543217
       4352.1000       3.3794296     0.037534116
       4354.5900       3.3445488     0.037524993
       4357.0900       3.2990313     0.037515776
       4359.5800       3.2535139     0.037506538
       4362.0700       3.2217738     0.037497242
       4364.5700       3.1900336     0.037487852
       4367.0600       3.1523240     0.037478441
       4369.5600       3.1146076     0.037468936
       4372.0500       3.0677538     0.037459411
       4374.5400       3.0209000     0.037449829
       4377.0400       2.9857749     0.037440151
       4379.5300       2.9506499     0.037430455
       4382.0300       2.9125468     0.037420663
       4384.5200       2.8744505     0.037410854
       4387.0200       2.8471333     0.037400948
       4389.5100       2.8198092     0.037391025
       4392.0000       2.8038069     0.037381046
       4394.5000       2.7878114     0.037370970
       4396.9900       2.7633703     0.037360877
       4399.4900       2.7389225     0.037350688
       4401.9800       2.7300904     0.037340484
       4404.4700       2.7212582     0.037330223
       4406.9700       2.7028884     0.037319865
       4409.4600       2.6845186     0.037309493
       4411.9600       2.6658029     0.037299022
       4414.4500       2.6470804     0.037288538
       4416.9400       2.6508588     0.037277999
       4419.4400       2.6546372     0.037267361
       4421.9300       2.6599487     0.037256710
       4424.4300       2.6652602     0.037245961
       4426.9200       2.6622483     0.037235200
       4429.4100       2.6592297     0.037224383
       4431.9100       2.6620923     0.037213468
       4434.4000       2.6649550     0.037202541
       4436.9000       2.6815135     0.037191515
       4439.3900       2.6980789     0.037180478
       4441.8800       2.6956233     0.037169387
       4444.3800       2.6931676     0.037158196
       4446.8700       2.6909494     0.037146995
       4449.3700       2.6887312     0.037135695
       4451.8600       2.6834197     0.037124385
       4454.3500       2.6781150     0.037113021
       4456.8500       2.6958200     0.037101557
       4459.3400       2.7135318     0.037090084
       4461.8400       2.7209733     0.037078511
       4464.3300       2.7284148     0.037066930
       4466.8200       2.7366704     0.037055296
       4469.3200       2.7449191     0.037043560
       4471.8100       2.7536428     0.037031818
       4474.3100       2.7623596     0.037019975
       4476.8000       2.7779820     0.037008125
       4479.2900       2.7936045     0.036996222
       4481.7900       2.7979867     0.036984218
       4484.2800       2.8023688     0.036972208
       4486.7800       2.8034338     0.036960097
       4489.2700       2.8044988     0.036947981
       4491.7600       2.8179166     0.036935811
       4494.2600       2.8313345     0.036923540
       4496.7500       2.8486799     0.036911265
       4499.2500       2.8660322     0.036898888
       4501.7400       2.8794975     0.036886507
       4504.2300       2.8929628     0.036874074
       4506.7300       2.8894896     0.036861538
       4509.2200       2.8860232     0.036848999
       4511.7200       2.8991358     0.036836358
       4514.2100       2.9122415     0.036823715
       4516.7100       2.9178244     0.036810969
       4519.2000       2.9234072     0.036798221
       4521.6900       2.9162099     0.036785422
       4524.1900       2.9090126     0.036772519
       4526.6800       2.9150499     0.036759616
       4529.1800       2.9210805     0.036746609
       4531.6700       2.9234411     0.036733602
       4534.1600       2.9258018     0.036720544
       4536.6600       2.9267854     0.036707381
       4539.1500       2.9277690     0.036694220
       4541.6500       2.9283456     0.036680954
       4544.1400       2.9289155     0.036667690
       4546.6300       2.9204767     0.036654375
       4549.1300       2.9120380     0.036640955
       4551.6200       2.9091822     0.036627538
       4554.1200       2.9063263     0.036614015
       4556.6100       2.9070657     0.036600496
       4559.1000       2.9077983     0.036586927
       4561.6000       2.9019916     0.036573252
       4564.0900       2.8961849     0.036559581
       4566.5900       2.8866677     0.036545804
       4569.0800       2.8771504     0.036532032
       4571.5700       2.8666020     0.036518210
       4574.0700       2.8560604     0.036504281
       4576.5600       2.8479948     0.036490359
       4579.0600       2.8399360     0.036476330
       4581.5500       2.8274611     0.036462307
       4584.0400       2.8149794     0.036448235
       4586.5400       2.8093219     0.036434055
       4589.0300       2.8036645     0.036419883
       4591.5300       2.7951851     0.036405604
       4594.0200       2.7867056     0.036391333
       4596.5100       2.7764015     0.036377012
       4599.0100       2.7660905     0.036362584
       4601.5000       2.7575365     0.036348165
       4604.0000       2.7489825     0.036333638
       4606.4900       2.7358971     0.036319120
       4608.9800       2.7228116     0.036304553
       4611.4800       2.7009619     0.036289879
       4613.9700       2.6791054     0.036275214
       4616.4700       2.6685502     0.036260441
       4618.9600       2.6579951     0.036245679
       4621.4500       2.6471143     0.036230868
       4623.9500       2.6362335     0.036215949
       4626.4400       2.6187252     0.036201042
       4628.9400       2.6012170     0.036186025
       4631.4300       2.5833085     0.036171021
       4633.9200       2.5654000     0.036155968
       4636.4200       2.5539222     0.036140807
       4638.9100       2.5424445     0.036125658
       4641.4100       2.5154936     0.036110401
       4643.9000       2.4885426     0.036095156
       4646.4000       2.4656075     0.036079803
       4648.8900       2.4426724     0.036064463
       4651.3800       2.4093857     0.036049075
       4653.8800       2.3760921     0.036033578
       4656.3700       2.3602798     0.036018096
       4658.8700       2.3444674     0.036002504
       4661.3600       2.3240897     0.035986927
       4663.8500       2.3037187     0.035971303
       4666.3500       2.2746378     0.035955569
       4668.8400       2.2455568     0.035939851
       4671.3400       2.2234154     0.035924022
       4673.8300       2.2012672     0.035908210
       4676.3200       2.1942191     0.035892352
       4678.8200       2.1871778     0.035876383
       4681.3100       2.1685706     0.035860431
       4683.8100       2.1499566     0.035844368
       4686.3000       2.1352363     0.035828324
       4688.7900       2.1205229     0.035812233
       4691.2900       2.0963464     0.035796031
       4693.7800       2.0721767     0.035779848
       4696.2800       2.0487939     0.035763553
       4698.7700       2.0254111     0.035747278
       4701.2600       2.0098158     0.035730957
       4703.7600       1.9942204     0.035714525
       4706.2500       1.9696505     0.035698112
       4708.7500       1.9450874     0.035681588
       4711.2400       1.9148532     0.035665084
       4713.7300       1.8846123     0.035648535
       4716.2300       1.8639361     0.035631874
       4718.7200       1.8432599     0.035615234
       4721.2200       1.8177606     0.035598482
       4723.7100       1.7922614     0.035581752
       4726.2000       1.7754246     0.035564977
       4728.7000       1.7585879     0.035548090
       4731.1900       1.7572245     0.035531225
       4733.6900       1.7558677     0.035514247
       4736.1800       1.7510718     0.035497293
       4738.6700       1.7462826     0.035480294
       4741.1700       1.7551148     0.035463183
       4743.6600       1.7639469     0.035446095
       4746.1600       1.7884558     0.035428894
       4748.6500       1.8129715     0.035411718
       4751.1400       1.8514680     0.035394498
       4753.6400       1.8899712     0.035377164
       4756.1300       1.9462202     0.035359855
       4758.6300       2.0024692     0.035342433
       4761.1200       2.0632224     0.035325037
       4763.6100       2.1239689     0.035307598
       4766.1100       2.1767244     0.035290044
       4768.6000       2.2294798     0.035272517
       4771.1000       2.2901042     0.035254876
       4773.5900       2.3507286     0.035237262
       4776.0800       2.4079137     0.035219605
       4778.5800       2.4650988     0.035201833
       4781.0700       2.5166129     0.035184090
       4783.5700       2.5681337     0.035166232
       4786.0600       2.6085907     0.035148402
       4788.5600       2.6490408     0.035130458
       4791.0500       2.6879308     0.035112543
       4793.5400       2.7268139     0.035094585
       4796.0400       2.7604534     0.035076513
       4798.5300       2.7940997     0.035058470
       4801.0300       2.8157323     0.035040312
       4803.5200       2.8373718     0.035022184
       4806.0100       2.8595064     0.035004014
       4808.5100       2.8816479     0.034985729
       4811.0000       2.9063941     0.034967474
       4813.5000       2.9311337     0.034949105
       4815.9900       2.9511858     0.034930767
       4818.4800       2.9712311     0.034912387
       4820.9800       2.9918462     0.034893891
       4823.4700       3.0124613     0.034875427
       4825.9700       3.0286129     0.034856848
       4828.4600       3.0447577     0.034838302
       4830.9500       3.0530607     0.034819714
       4833.4500       3.0613638     0.034801010
       4835.9400       3.0677131     0.034782339
       4838.4400       3.0740693     0.034763553
       4840.9300       3.0739947     0.034744800
       4843.4200       3.0739133     0.034726006
       4845.9200       3.0694226     0.034707096
       4848.4100       3.0649251     0.034688221
       4850.9100       3.0606447     0.034669229
       4853.4000       3.0563711     0.034650272
       4855.8900       3.0460873     0.034631275
       4858.3900       3.0358102     0.034612161
       4860.8800       3.0123392     0.034593083
       4863.3800       2.9888615     0.034573888
       4865.8700       2.9604317     0.034554729
       4868.3600       2.9319952     0.034535531
       4870.8600       2.9059871     0.034516215
       4873.3500       2.8799723     0.034496936
       4875.8500       2.8596218     0.034477540
       4878.3400       2.8392712     0.034458182
       4880.8300       2.8209353     0.034438784
       4883.3300       2.8025994     0.034419268
       4885.8200       2.7850844     0.034399791
       4888.3200       2.7675761     0.034380197
       4890.8100       2.7511193     0.034360641
       4893.3000       2.7346625     0.034341046
       4895.8000       2.7216856     0.034321333
       4898.2900       2.7087155     0.034301659
       4900.7900       2.6990625     0.034281868
       4903.2800       2.6894163     0.034262116
       4905.7700       2.6771653     0.034242326
       4908.2700       2.6649143     0.034222418
       4910.7600       2.6634219     0.034202550
       4913.2600       2.6619227     0.034182564
       4915.7500       2.6653145     0.034162620
       4918.2500       2.6687130     0.034142557
       4920.7400       2.6754898     0.034122535
       4923.2300       2.6822597     0.034102476
       4925.7300       2.6840777     0.034082298
       4928.2200       2.6858957     0.034062162
       4930.7200       2.6890907     0.034041907
       4933.2100       2.6922790     0.034021695
       4935.7000       2.7013146     0.034001446
       4938.2000       2.7103435     0.033981078
       4940.6900       2.7136810     0.033960753
       4943.1900       2.7170185     0.033940309
       4945.6800       2.7115171     0.033919909
       4948.1700       2.7060224     0.033899472
       4950.6700       2.6988658     0.033878916
       4953.1600       2.6917024     0.033858404
       4955.6600       2.6884667     0.033837773
       4958.1500       2.6852309     0.033817187
       4960.6400       2.6807063     0.033796564
       4963.1400       2.6761885     0.033775822
       4965.6300       2.6690047     0.033755126
       4968.1300       2.6618278     0.033734309
       4970.6200       2.6463274     0.033713540
       4973.1100       2.6308338     0.033692734
       4975.6100       2.6170226     0.033671808
       4978.1000       2.6032045     0.033650929
       4980.6000       2.5853028     0.033629930
       4983.0900       2.5674011     0.033608978
       4985.5800       2.5479052     0.033587991
       4988.0800       2.5284094     0.033566603
       4990.5700       2.5132347     0.033546080
       4993.0700       2.4980599     0.033524986
       4995.5600       2.4775669     0.033503505
       4998.0500       2.4570739     0.033481820
       5000.5500       2.4351156     0.033460505
       5003.0400       2.4129131     0.033439420
       5005.5400       2.3823466     0.033418249
