# data from 
# via WISEREP
# de-redshifted assuming z=   0.00239000
# phase in rest-frame days relative to JD =        2451480.9
# type is SNII
# phase is       39.5000
# WARNING: fake error spectrum!

       4229.8900      0.48420209     0.021199962
       4230.8900      0.47194044     0.021285992
       4231.8900      0.45968002     0.021371875
       4232.8800      0.44841676     0.021456755
       4233.8800      0.43715349     0.021542347
       4234.8800      0.42925885     0.021627792
       4235.8800      0.42136421     0.021713091
       4236.8700      0.41363351     0.021797394
       4237.8700      0.40590280     0.021882402
       4238.8700      0.39791079     0.021967265
       4239.8700      0.38991877     0.022051982
       4240.8600      0.38484673     0.022135708
       4241.8600      0.37977592     0.022220135
       4242.8600      0.37730584     0.022304417
       4243.8600      0.37483453     0.022388553
       4244.8500      0.37325683     0.022471705
       4245.8500      0.37167914     0.022555552
       4246.8500      0.36975139     0.022639253
       4247.8500      0.36782488     0.022722810
       4248.8500      0.36577141     0.022806222
       4249.8400      0.36371917     0.022888657
       4250.8400      0.36463744     0.022971781
       4251.8400      0.36555571     0.023054759
       4252.8400      0.36842884     0.023137594
       4253.8300      0.37130320     0.023219457
       4254.8300      0.37206493     0.023302004
       4255.8300      0.37282790     0.023384406
       4256.8300      0.37324574     0.023466664
       4257.8200      0.37366481     0.023547958
       4258.8200      0.37815508     0.023629929
       4259.8200      0.38264658     0.023711757
       4260.8200      0.38622228     0.023793440
       4261.8100      0.38979675     0.023874165
       4262.8100      0.39191185     0.023955563
       4263.8100      0.39402694     0.024036816
       4264.8100      0.40162946     0.024117927
       4265.8000      0.40923075     0.024198085
       4266.8000      0.41383195     0.024278910
       4267.8000      0.41843438     0.024359591
       4268.8000      0.41841096     0.024440130
       4269.7900      0.41838755     0.024519722
       4270.7900      0.42320938     0.024599976
       4271.7900      0.42803121     0.024680087
       4272.7900      0.43173263     0.024760056
       4273.7900      0.43543405     0.024839881
       4274.7800      0.43708940     0.024918768
       4275.7800      0.43874475     0.024998310
       4276.7800      0.44320913     0.025077710
       4277.7800      0.44767352     0.025156967
       4278.7700      0.44872737     0.025235291
       4279.7700      0.44978122     0.025314265
       4280.7700      0.44655557     0.025393098
       4281.7700      0.44332992     0.025471788
       4282.7600      0.44751328     0.025549551
       4283.7600      0.45169664     0.025627959
       4284.7600      0.45953458     0.025706226
       4285.7600      0.46737375     0.025784350
       4286.7500      0.47473839     0.025861554
       4287.7500      0.48210302     0.025939397
       4288.7500      0.49036990     0.026017099
       4289.7500      0.49863554     0.026094660
       4290.7500      0.50478978     0.026172079
       4291.7400      0.51094526     0.026248586
       4292.7400      0.51778605     0.026325725
       4293.7400      0.52462561     0.026402723
       4294.7400      0.53313407     0.026479580
       4295.7300      0.54164253     0.026555530
       4296.7300      0.54841799     0.026632107
       4297.7300      0.55519345     0.026708544
       4298.7300      0.56062048     0.026784840
       4299.7200      0.56604750     0.026860236
       4300.7200      0.57095561     0.026936253
       4301.7200      0.57586373     0.027012130
       4302.7200      0.58127473     0.027087867
       4303.7100      0.58668573     0.027162709
       4304.7100      0.59063243     0.027238168
       4305.7100      0.59457914     0.027313487
       4306.7100      0.59594113     0.027388666
       4307.7000      0.59730189     0.027462956
       4308.7000      0.59474553     0.027537857
       4309.7000      0.59218918     0.027612619
       4310.7000      0.59062627     0.027687242
       4311.6900      0.58906337     0.027760982
       4312.6900      0.58402707     0.027835327
       4313.6900      0.57899077     0.027909534
       4314.6900      0.57159039     0.027983602
       4315.6900      0.56419125     0.028057531
       4316.6800      0.55804563     0.028130584
       4317.6800      0.55190001     0.028204237
       4318.6800      0.54587889     0.028277751
       4319.6800      0.53985653     0.028351127
       4320.6700      0.53328321     0.028423633
       4321.6700      0.52670619     0.028496733
       4322.6700      0.51999236     0.028569696
       4323.6700      0.51329208     0.028642520
       4324.6600      0.50580789     0.028714480
       4325.6600      0.49834712     0.028787029
       4326.6600      0.49162342     0.028859441
       4327.6600      0.48494041     0.028931715
       4328.6500      0.47986836     0.029003131
       4329.6500      0.47485425     0.029075131
       4330.6500      0.47466443     0.029146993
       4331.6500      0.47453624     0.029218719
       4332.6500      0.47310646     0.029290306
       4333.6400      0.47172104     0.029361043
       4334.6400      0.47006570     0.029432358
       4335.6400      0.46840788     0.029503536
       4336.6400      0.46918194     0.029574577
       4337.6300      0.46989067     0.029644773
       4338.6300      0.47181595     0.029715541
       4339.6300      0.47361921     0.029786173
       4340.6300      0.47784571     0.029856669
       4341.6200      0.48193046     0.029926325
       4342.6200      0.48093207     0.029996549
       4343.6200      0.47981783     0.030066637
       4344.6200      0.48049451     0.030136588
       4345.6100      0.48111080     0.030205706
       4346.6100      0.47926070     0.030275387
       4347.6100      0.47741431     0.030344931
       4348.6100      0.48782216     0.030414340
       4349.6000      0.49827809     0.030482921
       4350.6000      0.50871923     0.030552060
       4351.6000      0.51922200     0.030621063
       4352.6000      0.52155896     0.030689931
       4353.5900      0.52395139     0.030757977
       4354.5900      0.52396618     0.030826575
       4355.5900      0.52402164     0.030895038
       4356.5900      0.52820623     0.030963366
       4357.5900      0.53241424     0.031031560
       4358.5800      0.53793618     0.031098938
       4359.5800      0.54346797     0.031166862
       4360.5800      0.54635589     0.031234652
       4361.5800      0.54927093     0.031302308
       4362.5700      0.55197890     0.031369154
       4363.5700      0.55468563     0.031436541
       4364.5700      0.55715201     0.031503795
       4365.5700      0.55961839     0.031570913
       4366.5600      0.56413948     0.031637229
       4367.5600      0.56866056     0.031704081
       4368.5600      0.57575773     0.031770799
       4369.5600      0.58285489     0.031837383
       4370.5500      0.58963775     0.031903169
       4371.5500      0.59641937     0.031969487
       4372.5500      0.60313690     0.032035671
       4373.5500      0.60985443     0.032101721
       4374.5400      0.61555386     0.032166980
       4375.5400      0.62125328     0.032232765
       4376.5400      0.62406971     0.032298417
       4377.5400      0.62688615     0.032363935
       4378.5400      0.62588283     0.032429321
       4379.5300      0.62488075     0.032493921
       4380.5300      0.62202364     0.032559042
       4381.5300      0.61916777     0.032624030
       4382.5300      0.61849725     0.032688885
       4383.5200      0.61782796     0.032752961
       4384.5200      0.61552428     0.032817553
       4385.5200      0.61321936     0.032882012
       4386.5200      0.61115357     0.032946338
       4387.5100      0.60908777     0.033009891
       4388.5100      0.60529884     0.033073954
       4389.5100      0.60150867     0.033137886
       4390.5100      0.59878591     0.033201685
       4391.5000      0.59606316     0.033264716
       4392.5000      0.59561820     0.033328253
       4393.5000      0.59517201     0.033391658
       4394.5000      0.59627886     0.033454932
       4395.4900      0.59738571     0.033517443
       4396.4900      0.59656975     0.033580455
       4397.4900      0.59575378     0.033643335
       4398.4900      0.59485400     0.033706084
       4399.4900      0.59395422     0.033768702
       4400.4800      0.59239871     0.033830565
       4401.4800      0.59084444     0.033892922
       4402.4800      0.59501793     0.033955148
       4403.4800      0.59919020     0.034017244
       4404.4700      0.60200663     0.034078589
       4405.4700      0.60482306     0.034140425
       4406.4700      0.60402682     0.034202129
       4407.4700      0.60323058     0.034263704
       4408.4600      0.60272645     0.034324534
       4409.4600      0.60222233     0.034385849
       4410.4600      0.60329837     0.034447034
       4411.4600      0.60437317     0.034508089
       4412.4500      0.61178711     0.034568405
       4413.4500      0.61920105     0.034629201
       4414.4500      0.62521847     0.034689867
       4415.4500      0.63123467     0.034750404
       4416.4400      0.63808409     0.034810207
       4417.4400      0.64493350     0.034870486
       4418.4400      0.65512196     0.034930635
       4419.4400      0.66531166     0.034990655
       4420.4400      0.67224859     0.035050546
       4421.4300      0.67918675     0.035109710
       4422.4300      0.68065351     0.035169344
       4423.4300      0.68212027     0.035228849
       4424.4300      0.68340092     0.035288224
       4425.4200      0.68468156     0.035346880
       4426.4200      0.68149782     0.035405999
       4427.4200      0.67831408     0.035464990
       4428.4200      0.67497997     0.035523852
       4429.4100      0.67164462     0.035582000
       4430.4100      0.66612146     0.035640606
       4431.4100      0.66059952     0.035699085
       4432.4100      0.65436886     0.035757435
       4433.4000      0.64813696     0.035815076
       4434.4000      0.64210228     0.035873172
       4435.4000      0.63606636     0.035931140
       4436.4000      0.62996882     0.035988980
       4437.3900      0.62387127     0.036046115
       4438.3900      0.61736328     0.036103701
       4439.3900      0.61085652     0.036161159
       4440.3900      0.60496234     0.036218490
       4441.3800      0.59906694     0.036275122
       4442.3800      0.59566504     0.036332200
       4443.3800      0.59226190     0.036389150
       4444.3800      0.58717999     0.036445974
       4445.3800      0.58209686     0.036502670
       4446.3700      0.57488630     0.036558674
       4447.3700      0.56767450     0.036615118
       4448.3700      0.56268258     0.036671435
       4449.3700      0.55769188     0.036727626
       4450.3600      0.55443788     0.036783130
       4451.3600      0.55118389     0.036839069
       4452.3600      0.54679716     0.036894881
       4453.3600      0.54241166     0.036950568
       4454.3500      0.53276923     0.037005573
       4455.3500      0.52312679     0.037061008
       4456.3500      0.51518902     0.037116317
       4457.3500      0.50725124     0.037171501
       4458.3400      0.50475774     0.037226009
       4459.3400      0.50226424     0.037280942
       4460.3400      0.49752746     0.037335749
       4461.3400      0.49279190     0.037390431
       4462.3300      0.48580567     0.037444443
       4463.3300      0.47881944     0.037498876
       4464.3300      0.47211547     0.037553183
       4465.3300      0.46541149     0.037607365
       4466.3300      0.45973672     0.037661422
       4467.3200      0.45406072     0.037714815
       4468.3200      0.45103105     0.037768624
       4469.3200      0.44800138     0.037822307
       4470.3200      0.44564593     0.037875866
       4471.3100      0.44329048     0.037928767
       4472.3100      0.43876200     0.037982078
       4473.3100      0.43423476     0.038035265
       4474.3100      0.42998607     0.038088327
       4475.3000      0.42573739     0.038140736
       4476.3000      0.42237369     0.038193551
       4477.3000      0.41901123     0.038246243
       4478.3000      0.41628601     0.038298810
       4479.2900      0.41356078     0.038350729
       4480.2900      0.41183641     0.038403050
       4481.2900      0.41011204     0.038455247
       4482.2900      0.40851709     0.038507320
       4483.2800      0.40692091     0.038558751
       4484.2800      0.40376675     0.038610579
       4485.2800      0.40061259     0.038662283
       4486.2800      0.39893136     0.038713864
       4487.2800      0.39725136     0.038765322
       4488.2700      0.39654633     0.038816144
       4489.2700      0.39584129     0.038867358
       4490.2700      0.39544687     0.038918448
       4491.2700      0.39505245     0.038969415
       4492.2600      0.39559848     0.039019752
       4493.2600      0.39614451     0.039070476
       4494.2600      0.39721685     0.039121077
       4495.2600      0.39829042     0.039171555
       4496.2500      0.39870826     0.039221409
       4497.2500      0.39912487     0.039271644
       4498.2500      0.40008751     0.039321757
       4499.2500      0.40105015     0.039371748
       4500.2400      0.40182175     0.039421119
       4501.2400      0.40259210     0.039470867
       4502.2400      0.40495988     0.039520494
       4503.2400      0.40732889     0.039569999
       4504.2300      0.41138036     0.039618889
       4505.2300      0.41543307     0.039668152
       4506.2300      0.42099814     0.039717294
       4507.2300      0.42656321     0.039766314
       4508.2300      0.43236864     0.039815213
       4509.2200      0.43817283     0.039863504
       4510.2200      0.44365163     0.039912162
       4511.2200      0.44912919     0.039960699
       4512.2200      0.45544736     0.040009115
       4513.2100      0.46176554     0.040056928
       4514.2100      0.46935450     0.040105104
       4515.2100      0.47694346     0.040153160
       4516.2100      0.48358211     0.040201095
       4517.2000      0.49022075     0.040248432
       4518.2000      0.49781588     0.040296127
       4519.2000      0.50540977     0.040343702
       4520.2000      0.51349916     0.040391157
       4521.1900      0.52158854     0.040438020
       4522.1900      0.53231071     0.040485236
       4523.1900      0.54303164     0.040532332
       4524.1900      0.55508006     0.040579309
       4525.1800      0.56712847     0.040625698
       4526.1800      0.57901049     0.040672437
       4527.1800      0.59089127     0.040719056
       4528.1800      0.60334274     0.040765555
       4529.1800      0.61579298     0.040811936
       4530.1700      0.62923297     0.040857735
       4531.1700      0.64267419     0.040903878
       4532.1700      0.66109872     0.040949902
       4533.1700      0.67952324     0.040995807
       4534.1600      0.70053617     0.041041137
       4535.1600      0.72154910     0.041086805
       4536.1600      0.74660980     0.041132356
       4537.1600      0.77166928     0.041177787
       4538.1500      0.79579939     0.041222648
       4539.1500      0.81993073     0.041267843
       4540.1500      0.84862753     0.041312921
       4541.1500      0.87732556     0.041357880
       4542.1400      0.90852942     0.041402274
       4543.1400      0.93973327     0.041446998
       4544.1400      0.96788034     0.041491604
       4545.1400      0.99602865     0.041536093
       4546.1300       1.0227398     0.041580021
       4547.1300       1.0494509     0.041624275
       4548.1300       1.0745461     0.041668412
       4549.1300       1.0996413     0.041712431
       4550.1200       1.1154922     0.041755894
       4551.1200       1.1313444     0.041799680
       4552.1200       1.1414749     0.041843348
       4553.1200       1.1516054     0.041886900
       4554.1200       1.1623412     0.041930334
       4555.1100       1.1730769     0.041973219
       4556.1100       1.1796009     0.042016421
       4557.1100       1.1861249     0.042059506
       4558.1100       1.1835538     0.042102474
       4559.1000       1.1809838     0.042144898
       4560.1000       1.1724828     0.042187634
       4561.1000       1.1639829     0.042230254
       4562.1000       1.1536096     0.042272758
       4563.0900       1.1432375     0.042314722
       4564.0900       1.1345762     0.042356995
       4565.0900       1.1259161     0.042399152
       4566.0900       1.1197076     0.042441192
       4567.0800       1.1134992     0.042482698
       4568.0800       1.1056033     0.042524509
       4569.0800       1.0977086     0.042566203
       4570.0800       1.0921892     0.042607782
       4571.0800       1.0866685     0.042649246
       4572.0700       1.0851845     0.042690181
       4573.0700       1.0837004     0.042731415
       4574.0700       1.0831371     0.042772534
       4575.0700       1.0825739     0.042813537
       4576.0600       1.0829375     0.042854018
       4577.0600       1.0833011     0.042894792
       4578.0600       1.0876817     0.042935453
       4579.0600       1.0920635     0.042975998
       4580.0500       1.1034438     0.043016025
       4581.0500       1.1148242     0.043056342
       4582.0500       1.1253060     0.043096545
       4583.0500       1.1357878     0.043136633
       4584.0400       1.1475577     0.043176208
       4585.0400       1.1593275     0.043216069
       4586.0400       1.1754360     0.043255816
       4587.0400       1.1915445     0.043295449
       4588.0300       1.2067792     0.043334573
       4589.0300       1.2220138     0.043373980
       4590.0300       1.2332894     0.043413272
       4591.0300       1.2445674     0.043452451
       4592.0200       1.2529243     0.043491126
       4593.0200       1.2612688     0.043530079
       4594.0200       1.2640298     0.043568919
       4595.0200       1.2667907     0.043607645
       4596.0200       1.2668031     0.043646259
       4597.0100       1.2668154     0.043684374
       4598.0100       1.2664949     0.043722762
       4599.0100       1.2661868     0.043761038
       4600.0100       1.2621686     0.043799200
       4601.0000       1.2581504     0.043836870
       4602.0000       1.2570534     0.043874808
       4603.0000       1.2559441     0.043912634
       4604.0000       1.2509768     0.043950347
       4604.9900       1.2460095     0.043987572
       4605.9900       1.2388113     0.044025062
       4606.9900       1.2316106     0.044062439
       4607.9900       1.2282740     0.044099705
       4608.9800       1.2249374     0.044136487
       4609.9800       1.2243791     0.044173530
       4610.9800       1.2238195     0.044210461
       4611.9800       1.2219719     0.044247280
       4612.9800       1.2201242     0.044283987
       4613.9700       1.2194895     0.044320218
       4614.9700       1.2188547     0.044356703
       4615.9700       1.2227755     0.044393077
       4616.9700       1.2266976     0.044429340
       4617.9600       1.2340412     0.044465131
       4618.9600       1.2413751     0.044501172
       4619.9600       1.2497812     0.044537103
       4620.9600       1.2581874     0.044572923
       4621.9500       1.2675919     0.044608275
       4622.9500       1.2770088     0.044643875
       4623.9500       1.2844412     0.044679364
       4624.9500       1.2918736     0.044714742
       4625.9400       1.3013398     0.044749657
       4626.9400       1.3108183     0.044784816
       4627.9400       1.3219115     0.044819864
       4628.9400       1.3330170     0.044854802
       4629.9300       1.3400426     0.044889282
       4630.9300       1.3470683     0.044924001
       4631.9300       1.3514809     0.044958610
