# data from 
# via WISEREP
# de-redshifted assuming z=   0.00239000
# phase in rest-frame days relative to JD =        2451480.9
# type is SNII
# phase is       48.5000
# WARNING: fake error spectrum!

       4229.8900      0.43936655     0.025232251
       4230.8900      0.42696469     0.025331475
       4231.8900      0.41456412     0.025430531
       4232.8800      0.40393285     0.025528431
       4233.8800      0.39330030     0.025627154
       4234.8800      0.38356011     0.025725709
       4235.8800      0.37381864     0.025824096
       4236.8700      0.36590948     0.025921335
       4237.8700      0.35799904     0.026019390
       4238.8700      0.35026732     0.026117278
       4239.8700      0.34253433     0.026214999
       4240.8600      0.33578113     0.026311578
       4241.8600      0.32902794     0.026408967
       4242.8600      0.32505728     0.026506190
       4243.8600      0.32108535     0.026603245
       4244.8500      0.31833109     0.026699167
       4245.8500      0.31557555     0.026795892
       4246.8500      0.31193793     0.026892451
       4247.8500      0.30829902     0.026988843
       4248.8500      0.30525288     0.027085070
       4249.8400      0.30220546     0.027180171
       4250.8400      0.30181457     0.027276068
       4251.8400      0.30142367     0.027371799
       4252.8400      0.30201773     0.027467365
       4253.8300      0.30261178     0.027561812
       4254.8300      0.30248063     0.027657048
       4255.8300      0.30234947     0.027752120
       4256.8300      0.30334342     0.027847026
       4257.8200      0.30433737     0.027940821
       4258.8200      0.30743751     0.028035399
       4259.8200      0.31053766     0.028129813
       4260.8200      0.31191607     0.028224061
       4261.8100      0.31329577     0.028317206
       4262.8100      0.31628405     0.028411127
       4263.8100      0.31927232     0.028504884
       4264.8100      0.32393861     0.028598477
       4265.8000      0.32860618     0.028690972
       4266.8000      0.33111870     0.028784239
       4267.8000      0.33363250     0.028877341
       4268.8000      0.33643691     0.028970280
       4269.7900      0.33924131     0.029062129
       4270.7900      0.34275163     0.029154742
       4271.7900      0.34626196     0.029247192
       4272.7900      0.35196077     0.029339478
       4273.7900      0.35765958     0.029431601
       4274.7800      0.36242873     0.029522643
       4275.7800      0.36719789     0.029614441
       4276.7800      0.36943781     0.029706077
       4277.7800      0.37167773     0.029797550
       4278.7700      0.37464286     0.029887948
       4279.7700      0.37760928     0.029979098
       4280.7700      0.38162750     0.030070085
       4281.7700      0.38564445     0.030160909
       4282.7600      0.38872916     0.030250666
       4283.7600      0.39181516     0.030341167
       4284.7600      0.39325529     0.030431507
       4285.7600      0.39469542     0.030521685
       4286.7500      0.39759112     0.030610802
       4287.7500      0.40048553     0.030700658
       4288.7500      0.40533055     0.030790352
       4289.7500      0.41017557     0.030879885
       4290.7500      0.41398935     0.030969257
       4291.7400      0.41780441     0.031057576
       4292.7400      0.42108715     0.031146626
       4293.7400      0.42436859     0.031235516
       4294.7400      0.43039658     0.031324245
       4295.7300      0.43642456     0.031411928
       4296.7300      0.44216066     0.031500336
       4297.7300      0.44789805     0.031588585
       4298.7300      0.45327283     0.031676672
       4299.7200      0.45864761     0.031763721
       4300.7200      0.46244982     0.031851490
       4301.7200      0.46625074     0.031939098
       4302.7200      0.47041941     0.032026546
       4303.7100      0.47458808     0.032112963
       4304.7100      0.47764194     0.032200093
       4305.7100      0.48069708     0.032287063
       4306.7100      0.48369307     0.032373874
       4307.7000      0.48669034     0.032459659
       4308.7000      0.48721111     0.032546153
       4309.7000      0.48773187     0.032632487
       4310.7000      0.48644346     0.032718662
       4311.6900      0.48515506     0.032803818
       4312.6900      0.48384222     0.032889677
       4313.6900      0.48252810     0.032975376
       4314.6900      0.47883648     0.033060917
       4315.6900      0.47514485     0.033146299
       4316.6800      0.46944989     0.033230671
       4317.6800      0.46375494     0.033315738
       4318.6800      0.45736692     0.033400647
       4319.6800      0.45097890     0.033485397
       4320.6700      0.44395440     0.033569144
       4321.6700      0.43692861     0.033653579
       4322.6700      0.43031943     0.033737857
       4323.6700      0.42372182     0.033821977
       4324.6600      0.41668060     0.033905101
       4325.6600      0.40967152     0.033988907
       4326.6600      0.40475450     0.034072556
       4327.6600      0.39990562     0.034156048
       4328.6500      0.39551964     0.034238549
       4329.6500      0.39124682     0.034321728
       4330.6500      0.38868801     0.034404750
       4331.6500      0.38627836     0.034487615
       4332.6500      0.38341095     0.034570323
       4333.6400      0.38067599     0.034652049
       4334.6400      0.37809532     0.034734446
       4335.6400      0.37554809     0.034816686
       4336.6400      0.37582840     0.034898769
       4337.6300      0.37598013     0.034979878
       4338.6300      0.37660890     0.035061651
       4339.6300      0.37695350     0.035143267
       4340.6300      0.37772886     0.035224728
       4341.6200      0.37816861     0.035305221
       4342.6200      0.37856722     0.035386371
       4343.6200      0.37871124     0.035467366
       4344.6200      0.37823419     0.035548206
       4345.6100      0.37766585     0.035628084
       4346.6100      0.38042782     0.035708615
       4347.6100      0.38325151     0.035788990
       4348.6100      0.38778664     0.035869211
       4349.6000      0.39246450     0.035948476
       4350.6000      0.39525090     0.036028388
       4351.6000      0.39817875     0.036108145
       4352.6000      0.40068869     0.036187748
       4353.5900      0.40330279     0.036266403
       4354.5900      0.40739817     0.036345698
       4355.5900      0.41155141     0.036424839
       4356.5900      0.41465541     0.036503826
       4357.5900      0.41778641     0.036582659
       4358.5800      0.41906710     0.036660552
       4359.5800      0.42035808     0.036739078
       4360.5800      0.42304933     0.036817451
       4361.5800      0.42575472     0.036895670
       4362.5700      0.42983467     0.036972956
       4363.5700      0.43391590     0.037050870
       4364.5700      0.43629212     0.037128630
       4365.5700      0.43866834     0.037206237
       4366.5600      0.44278558     0.037282917
       4367.5600      0.44690281     0.037360220
       4368.5600      0.45340270     0.037437370
       4369.5600      0.45990130     0.037514367
       4370.5500      0.46632532     0.037590444
       4371.5500      0.47274934     0.037667137
       4372.5500      0.47560518     0.037743678
       4373.5500      0.47846101     0.037820066
       4374.5400      0.48221693     0.037895541
       4375.5400      0.48597285     0.037971627
       4376.5400      0.49100431     0.038047560
       4377.5400      0.49603449     0.038123342
       4378.5400      0.50029703     0.038198972
       4379.5300      0.50456085     0.038273697
       4380.5300      0.50581325     0.038349025
       4381.5300      0.50706565     0.038424202
       4382.5300      0.50600613     0.038499227
       4383.5200      0.50494531     0.038573354
       4384.5200      0.50406580     0.038648078
       4385.5200      0.50318629     0.038722652
       4386.5200      0.50177316     0.038797075
       4387.5100      0.50036003     0.038870604
       4388.5100      0.49865373     0.038944727
       4389.5100      0.49694743     0.039018699
       4390.5100      0.49551630     0.039092521
       4391.5000      0.49408388     0.039165456
       4392.5000      0.49149550     0.039238979
       4393.5000      0.48890712     0.039312351
       4394.5000      0.48703237     0.039385573
       4395.4900      0.48515634     0.039457916
       4396.4900      0.48439127     0.039530840
       4397.4900      0.48362620     0.039603614
       4398.4900      0.48365321     0.039676239
       4399.4900      0.48368021     0.039748714
       4400.4800      0.48466001     0.039820317
       4401.4800      0.48563982     0.039892495
       4402.4800      0.48721111     0.039964524
       4403.4800      0.48878111     0.040036404
       4404.4700      0.48935716     0.040107418
       4405.4700      0.48993321     0.040179002
       4406.4700      0.49064685     0.040250436
       4407.4700      0.49135920     0.040321723
       4408.4600      0.49289834     0.040392150
       4409.4600      0.49443749     0.040463140
       4410.4600      0.49666969     0.040533983
       4411.4600      0.49890318     0.040604677
       4412.4500      0.50116368     0.040674518
       4413.4500      0.50342417     0.040744918
       4414.4500      0.50724181     0.040815169
       4415.4500      0.51105816     0.040885273
       4416.4400      0.51568330     0.040954531
       4417.4400      0.52030716     0.041024341
       4418.4400      0.52664246     0.041094004
       4419.4400      0.53297776     0.041163520
       4420.4400      0.54028515     0.041232888
       4421.4300      0.54759382     0.041301418
       4422.4300      0.55737258     0.041370493
       4423.4300      0.56715134     0.041439422
       4424.4300      0.57548097     0.041508204
       4425.4200      0.58380931     0.041576154
       4426.4200      0.59012017     0.041644644
       4427.4200      0.59642976     0.041712988
       4428.4200      0.60068972     0.041781185
       4429.4100      0.60494840     0.041848557
       4430.4100      0.60494583     0.041916464
       4431.4100      0.60494197     0.041984224
       4432.4100      0.60175053     0.042051839
       4433.4000      0.59855910     0.042118634
       4434.4000      0.59302101     0.042185958
       4435.4000      0.58748293     0.042253137
       4436.4000      0.58096762     0.042320171
       4437.3900      0.57445101     0.042386391
       4438.3900      0.56719763     0.042453136
       4439.3900      0.55994425     0.042519735
       4440.3900      0.55372339     0.042586189
       4441.3800      0.54750253     0.042651836
       4442.3800      0.54218175     0.042718002
       4443.3800      0.53686097     0.042784023
       4444.3800      0.53158006     0.042849900
       4445.3800      0.52630043     0.042915632
       4446.3700      0.52101823     0.042980565
       4447.3700      0.51573602     0.043046010
       4448.3700      0.51083957     0.043111311
       4449.3700      0.50594441     0.043176467
       4450.3600      0.50199176     0.043240831
       4451.3600      0.49804039     0.043305701
       4452.3600      0.49380486     0.043370428
       4453.3600      0.48956932     0.043435011
       4454.3500      0.48521935     0.043498807
       4455.3500      0.48086938     0.043563105
       4456.3500      0.47482468     0.043627259
       4457.3500      0.46877869     0.043691270
       4458.3400      0.46284329     0.043754500
       4459.3400      0.45690788     0.043818227
       4460.3400      0.45162825     0.043881810
       4461.3400      0.44634862     0.043945251
       4462.3300      0.44124258     0.044007917
       4463.3300      0.43613653     0.044071075
       4464.3300      0.43098549     0.044134089
       4465.3300      0.42583444     0.044196962
       4466.3300      0.41954672     0.044259692
       4467.3200      0.41325900     0.044321655
       4468.3200      0.40753190     0.044384103
       4469.3200      0.40180351     0.044446409
       4470.3200      0.39784957     0.044508573
       4471.3100      0.39389435     0.044569976
       4472.3100      0.39041489     0.044631858
       4473.3100      0.38693542     0.044693599
       4474.3100      0.38253016     0.044755198
       4475.3000      0.37812490     0.044816042
       4476.3000      0.37441141     0.044877361
       4477.3000      0.37069792     0.044938538
       4478.3000      0.36809797     0.044999575
       4479.2900      0.36549802     0.045059863
       4480.2900      0.36324909     0.045120619
       4481.2900      0.36099889     0.045181235
       4482.2900      0.35775344     0.045241711
       4483.2800      0.35450929     0.045301443
       4484.2800      0.35135385     0.045361640
       4485.2800      0.34819842     0.045421696
       4486.2800      0.34619766     0.045481612
       4487.2800      0.34419562     0.045541389
       4488.2700      0.34229516     0.045600429
       4489.2700      0.34039470     0.045659928
       4490.2700      0.33872312     0.045719286
       4491.2700      0.33705153     0.045778505
       4492.2600      0.33731256     0.045836995
       4493.2600      0.33757358     0.045895937
       4494.2600      0.33786418     0.045954740
       4495.2600      0.33815478     0.046013404
       4496.2500      0.33731127     0.046071344
       4497.2500      0.33646777     0.046129731
       4498.2500      0.33852510     0.046187980
       4499.2500      0.34058243     0.046246090
       4500.2400      0.34069558     0.046303483
       4501.2400      0.34080745     0.046361317
       4502.2400      0.34192741     0.046419013
       4503.2400      0.34304866     0.046476572
       4504.2300      0.34494012     0.046533418
       4505.2300      0.34683286     0.046590702
       4506.2300      0.35091281     0.046647847
       4507.2300      0.35499405     0.046704855
       4508.2300      0.35804661     0.046761725
       4509.2200      0.36109790     0.046817892
       4510.2200      0.36480238     0.046874488
       4511.2200      0.36850687     0.046930948
       4512.2200      0.37302657     0.046987270
       4513.2100      0.37754498     0.047042894
       4514.2100      0.38282076     0.047098944
       4515.2100      0.38809653     0.047154856
       4516.2100      0.39464913     0.047210632
       4517.2000      0.40120303     0.047265716
       4518.2000      0.40824553     0.047321220
       4519.2000      0.41528804     0.047376588
       4520.2000      0.42262114     0.047431819
       4521.1900      0.42995425     0.047486364
       4522.1900      0.43709448     0.047541325
       4523.1900      0.44423600     0.047596149
       4524.1900      0.45204486     0.047650838
       4525.1800      0.45985244     0.047704846
       4526.1800      0.46956948     0.047759264
       4527.1800      0.47928652     0.047813547
       4528.1800      0.48893541     0.047867695
       4529.1800      0.49858430     0.047921707
       4530.1700      0.50919628     0.047975046
       4531.1700      0.51980826     0.048028789
       4532.1700      0.53149133     0.048082397
       4533.1700      0.54317570     0.048135871
       4534.1600      0.55710513     0.048188676
       4535.1600      0.57103456     0.048241882
       4536.1600      0.58776453     0.048294952
       4537.1600      0.60449321     0.048347888
       4538.1500      0.62360069     0.048400163
       4539.1500      0.64270946     0.048452832
       4540.1500      0.66505595     0.048505366
       4541.1500      0.68740244     0.048557767
       4542.1400      0.71269477     0.048609512
       4543.1400      0.73798839     0.048661646
       4544.1400      0.76711122     0.048713647
       4545.1400      0.79623534     0.048765514
       4546.1300      0.82946769     0.048816731
       4547.1300      0.86270004     0.048868332
       4548.1300      0.89659589     0.048919801
       4549.1300      0.93049301     0.048971136
       4550.1200      0.96125142     0.049021826
       4551.1200      0.99200855     0.049072897
       4552.1200       1.0203393     0.049123834
       4553.1200       1.0486701     0.049174639
       4554.1200       1.0725994     0.049225311
       4555.1100       1.0965275     0.049275346
       4556.1100       1.1141151     0.049325755
       4557.1100       1.1317040     0.049376032
       4558.1100       1.1427030     0.049426176
       4559.1000       1.1537033     0.049475689
       4560.1000       1.1567893     0.049525570
       4561.1000       1.1598753     0.049575320
       4562.1000       1.1563971     0.049624938
       4563.0900       1.1529203     0.049673930
       4564.0900       1.1469951     0.049723286
       4565.0900       1.1410713     0.049772511
       4566.0900       1.1286026     0.049821604
       4567.0800       1.1161326     0.049870077
       4568.0800       1.1012182     0.049918910
       4569.0800       1.0863038     0.049967611
       4570.0800       1.0723847     0.050016182
       4571.0800       1.0584668     0.050064621
       4572.0700       1.0454966     0.050112448
       4573.0700       1.0325264     0.050160628
       4574.0700       1.0227708     0.050208678
       4575.0700       1.0130152     0.050256597
       4576.0600       1.0035798     0.050303908
       4577.0600      0.99414303     0.050351569
       4578.0600      0.98815491     0.050399099
       4579.0600      0.98216678     0.050446499
       4580.0500      0.98020074     0.050493297
       4581.0500      0.97823471     0.050540440
       4582.0500      0.98216421     0.050587452
       4583.0500      0.98609372     0.050634335
       4584.0400      0.99239044     0.050680622
       4585.0400      0.99868845     0.050727248
       4586.0400       1.0101066     0.050773745
       4587.0400       1.0215261     0.050820112
       4588.0300       1.0369831     0.050865889
       4589.0300       1.0524401     0.050912001
       4590.0300       1.0717276     0.050957983
       4591.0300       1.0910151     0.051003837
       4592.0200       1.1096095     0.051049106
       4593.0200       1.1282040     0.051094704
       4594.0200       1.1448131     0.051140175
       4595.0200       1.1614222     0.051185517
       4596.0200       1.1744104     0.051230731
       4597.0100       1.1873986     0.051275367
       4598.0100       1.1948307     0.051320326
       4599.0100       1.2022628     0.051365158
       4600.0100       1.2049091     0.051409862
       4601.0000       1.2075540     0.051453994
       4602.0000       1.2044462     0.051498444
       4603.0000       1.2013370     0.051542768
       4604.0000       1.1945452     0.051586964
       4604.9900       1.1877548     0.051630593
       4605.9900       1.1809360     0.051674537
       4606.9900       1.1741172     0.051718353
       4607.9900       1.1683142     0.051762043
       4608.9800       1.1625113     0.051805171
       4609.9800       1.1549364     0.051848609
       4610.9800       1.1473603     0.051891921
       4611.9800       1.1399076     0.051935106
       4612.9800       1.1324562     0.051978166
       4613.9700       1.1242153     0.052020670
       4614.9700       1.1159731     0.052063478
       4615.9700       1.1100120     0.052106161
       4616.9700       1.1040496     0.052148718
       4617.9600       1.1012478     0.052190725
       4618.9600       1.0984459     0.052233032
       4619.9600       1.0990439     0.052275213
       4620.9600       1.0996418     0.052317270
       4621.9500       1.1063705     0.052358782
       4622.9500       1.1130993     0.052400589
       4623.9500       1.1240996     0.052442271
       4624.9500       1.1350999     0.052483828
       4625.9400       1.1491039     0.052524847
       4626.9400       1.1631079     0.052566156
       4627.9400       1.1810749     0.052607341
       4628.9400       1.1990405     0.052648401
       4629.9300       1.2141040     0.052688928
       4630.9300       1.2291676     0.052729740
       4631.9300       1.2441372     0.052770429
