# data from 
# via WISEREP
# de-redshifted assuming z=   0.00239000
# phase in rest-frame days relative to JD =        2451480.9
# type is SNII
# phase is       36.5000
# WARNING: fake error spectrum!

       3990.4600       1.0913408     0.085569913
       3992.9600       1.0859567     0.085556372
       3995.4500       1.0805727     0.085542806
       3997.9400       1.0720085     0.085529160
       4000.4400       1.0634469     0.085515381
       4002.9300       1.0475947     0.085501579
       4005.4300       1.0317451     0.085487641
       4007.9200       1.0091387     0.085473681
       4010.4200      0.98652970     0.085459586
       4012.9100      0.96334370     0.085445469
       4015.4000      0.94015517     0.085431274
       4017.9000      0.95059789     0.085416944
       4020.3900      0.96104061     0.085402592
       4022.8900      0.97156976     0.085388104
       4025.3800      0.98209892     0.085373597
       4027.8700      0.99287973     0.085359012
       4030.3700       1.0036605     0.085344290
       4032.8600       1.0440028     0.085329549
       4035.3600       1.0843451     0.085314671
       4037.8500       1.1172595     0.085299775
       4040.3400       1.1501713     0.085284802
       4042.8400       1.1602760     0.085269691
       4045.3300       1.1703806     0.085254563
       4047.8300       1.1872267     0.085239297
       4050.3200       1.2040729     0.085224015
       4052.8100       1.2393920     0.085208656
       4055.3100       1.2747112     0.085193158
       4057.8000       1.2858937     0.085177645
       4060.3000       1.2970761     0.085161993
       4062.7900       1.3242506     0.085146327
       4065.2800       1.3514251     0.085130585
       4067.7800       1.3910098     0.085114703
       4070.2700       1.4305945     0.085098808
       4072.7700       1.4375572     0.085082772
       4075.2600       1.4445199     0.085066725
       4077.7500       1.4259451     0.085050601
       4080.2500       1.4073704     0.085034337
       4082.7400       1.4015339     0.085018061
       4085.2400       1.3956973     0.085001645
       4087.7300       1.4004408     0.084985218
       4090.2200       1.4051842     0.084968715
       4092.7200       1.3958346     0.084952071
       4095.2100       1.3864824     0.084935418
       4097.7100       1.3558228     0.084918622
       4100.2000       1.3251657     0.084901818
       4102.6900       1.2839287     0.084884939
       4105.1900       1.2426942     0.084867917
       4107.6800       1.1892070     0.084850888
       4110.1800       1.1357198     0.084833715
       4112.6700       1.0818767     0.084816536
       4115.1600       1.0280362     0.084799283
       4117.6600       1.0022523     0.084781885
       4120.1500      0.97646829     0.084764483
       4122.6500      0.94266925     0.084746936
       4125.1400      0.90887276     0.084729384
       4127.6300      0.90807201     0.084711759
       4130.1300      0.90727381     0.084693988
       4132.6200      0.93589724     0.084676214
       4135.1200      0.96452321     0.084658295
       4137.6100      0.96193541     0.084640373
       4140.1000      0.95934507     0.084622378
       4142.6000      0.95881632     0.084604236
       4145.0900      0.95828758     0.084586093
       4147.5900      0.96420800     0.084567804
       4150.0800      0.97012588     0.084549514
       4152.5800      0.95646747     0.084531077
       4155.0700      0.94280906     0.084512641
       4157.5600      0.90957944     0.084494131
       4160.0600      0.87634983     0.084475474
       4162.5500      0.85571350     0.084456819
       4165.0500      0.83507718     0.084438015
       4167.5400      0.80922457     0.084419214
       4170.0300      0.78337451     0.084400340
       4172.5300      0.76838661     0.084381317
       4175.0200      0.75340126     0.084362298
       4177.5200      0.74784180     0.084343130
       4180.0100      0.74228235     0.084323966
       4182.5000      0.74364234     0.084304730
       4185.0000      0.74500234     0.084285344
       4187.4900      0.75779645     0.084265963
       4189.9900      0.77059057     0.084246433
       4192.4800      0.78741891     0.084226908
       4194.9700      0.80424725     0.084207312
       4197.4700      0.84382181     0.084187565
       4199.9600      0.88339892     0.084167826
       4202.4600      0.91030393     0.084147935
       4204.9500      0.93720639     0.084128053
       4207.4400      0.94116436     0.084108099
       4209.9400      0.94512232     0.084087994
       4212.4300      0.93451437     0.084067897
       4214.9300      0.92390641     0.084047649
       4217.4200      0.89943922     0.084027411
       4219.9100      0.87496950     0.084007101
       4222.4100      0.83047607     0.083986639
       4224.9000      0.78598520     0.083966189
       4227.4000      0.74147398     0.083945585
       4229.8900      0.69696531     0.083924993
       4232.3800      0.67278791     0.083904330
       4234.8800      0.64861052     0.083883514
       4237.3700      0.62908252     0.083862711
       4239.8700      0.60955199     0.083841754
       4242.3600      0.58450267     0.083820811
       4244.8500      0.55945082     0.083799797
       4247.3500      0.54153702     0.083778629
       4249.8400      0.52362323     0.083757476
       4252.3400      0.53172218     0.083736168
       4254.8300      0.53982114     0.083714876
       4257.3200      0.55039097     0.083693514
       4259.8200      0.56096079     0.083671996
       4262.3100      0.56392736     0.083650495
       4264.8100      0.56689647     0.083628838
       4267.3000      0.57680028     0.083607199
       4269.7900      0.58670154     0.083585491
       4272.2900      0.60211142     0.083563626
       4274.7800      0.61752384     0.083541779
       4277.2800      0.63894820     0.083519776
       4279.7700      0.66037510     0.083497792
       4282.2700      0.66465845     0.083475651
       4284.7600      0.66894434     0.083453529
       4287.2500      0.68828931     0.083431340
       4289.7500      0.70763427     0.083408992
       4292.2400      0.72582006     0.083386666
       4294.7400      0.74400331     0.083364181
       4297.2300      0.77907083     0.083341718
       4299.7200      0.81413581     0.083319188
       4302.2200      0.82767220     0.083296498
       4304.7100      0.84121113     0.083273832
       4307.2100      0.83931222     0.083251006
       4309.7000      0.83741332     0.083228204
       4312.1900      0.83688711     0.083205335
       4314.6900      0.83636091     0.083182306
       4317.1800      0.81735404     0.083159301
       4319.6800      0.79834970     0.083136137
       4322.1700      0.78354737     0.083112998
       4324.6600      0.76874250     0.083089792
       4327.1600      0.75907002     0.083066426
       4329.6500      0.74939754     0.083043086
       4332.1500      0.74062239     0.083019585
       4334.6400      0.73184725     0.082996111
       4337.1300      0.73059403     0.082972571
       4339.6300      0.72934080     0.082948870
       4342.1200      0.72718768     0.082925196
       4344.6200      0.72503457     0.082901361
       4347.1100      0.74333984     0.082877555
       4349.6000      0.76164765     0.082853683
       4352.1000      0.77699906     0.082829649
       4354.5900      0.79234793     0.082805644
       4357.0900      0.80459551     0.082781477
       4359.5800      0.81684054     0.082757341
       4362.0700      0.82763407     0.082733139
       4364.5700      0.83842505     0.082708774
       4367.0600      0.85230208     0.082684441
       4369.5600      0.86618164     0.082659944
       4372.0500      0.87383829     0.082635480
       4374.5400      0.88149747     0.082610951
       4377.0400      0.88863299     0.082586257
       4379.5300      0.89576851     0.082561598
       4382.0300      0.89729628     0.082536773
       4384.5200      0.89882405     0.082511984
       4387.0200      0.89178258     0.082487029
       4389.5100      0.88474366     0.082462110
       4392.0000      0.87503050     0.082437125
       4394.5000      0.86531481     0.082411976
       4396.9900      0.86685783     0.082386863
       4399.4900      0.86839831     0.082361584
       4401.9800      0.88070181     0.082336342
       4404.4700      0.89300531     0.082311036
       4406.9700      0.90139660     0.082285564
       4409.4600      0.90978535     0.082260129
       4411.9600      0.91948071     0.082234528
       4414.4500      0.92917607     0.082208966
       4416.9400      0.93427796     0.082183340
       4419.4400      0.93937984     0.082157547
       4421.9300      0.94024668     0.082131794
       4424.4300      0.94111098     0.082105873
       4426.9200      0.93831981     0.082079993
       4429.4100      0.93552864     0.082054050
       4431.9100      0.92623238     0.082027938
       4434.4000      0.91693358     0.082001868
       4436.9000      0.89685142     0.081975630
       4439.3900      0.87676926     0.081949434
       4441.8800      0.85889106     0.081923175
       4444.3800      0.84101031     0.081896748
       4446.8700      0.82570465     0.081870364
       4449.3700      0.81039900     0.081843811
       4451.8600      0.79266569     0.081817301
       4454.3500      0.77493238     0.081790729
       4456.8500      0.76016564     0.081763988
       4459.3400      0.74539890     0.081737291
       4461.8400      0.72401013     0.081710425
       4464.3300      0.70262136     0.081683604
       4466.8200      0.68796647     0.081656722
       4469.3200      0.67330903     0.081629669
       4471.8100      0.65966333     0.081602663
       4474.3100      0.64601509     0.081575486
       4476.8000      0.62709465     0.081548356
       4479.2900      0.60817420     0.081521165
       4481.7900      0.60416031     0.081493803
       4484.2800      0.60014896     0.081466489
       4486.7800      0.60129543     0.081439003
       4489.2700      0.60244443     0.081411567
       4491.7600      0.60163098     0.081384069
       4494.2600      0.60081498     0.081356400
       4496.7500      0.60260712     0.081328781
       4499.2500      0.60439926     0.081300989
       4501.7400      0.61332947     0.081273248
       4504.2300      0.62226222     0.081245447
       4506.7300      0.64292396     0.081217473
       4509.2200      0.66358571     0.081189550
       4511.7200      0.68195453     0.081161455
       4514.2100      0.70032335     0.081133412
       4516.7100      0.72301619     0.081105196
       4519.2000      0.74571157     0.081077032
       4521.6900      0.77752527     0.081048809
       4524.1900      0.80933897     0.081020412
       4526.6800      0.85291217     0.080992069
       4529.1800      0.89648283     0.080963552
       4531.6700      0.95495495     0.080935089
       4534.1600       1.0134296     0.080906567
       4536.6600       1.0890580     0.080877871
       4539.1500       1.1646864     0.080849230
       4541.6500       1.2340741     0.080820414
       4544.1400       1.3034643     0.080791655
       4546.6300       1.3785284     0.080762837
       4549.1300       1.4535924     0.080733843
       4551.6200       1.5018201     0.080704907
       4554.1200       1.5500452     0.080675795
       4556.6100       1.5661898     0.080646741
       4559.1000       1.5823318     0.080617629
       4561.6000       1.5815412     0.080588341
       4564.0900       1.5807481     0.080559111
       4566.5900       1.5662660     0.080529706
       4569.0800       1.5517840     0.080500359
       4571.5700       1.5384764     0.080470955
       4574.0700       1.5251662     0.080441374
       4576.5600       1.5343202     0.080411854
       4579.0600       1.5434741     0.080382157
       4581.5500       1.5767647     0.080352520
       4584.0400       1.6100528     0.080322826
       4586.5400       1.6410098     0.080292955
       4589.0300       1.6719668     0.080263146
       4591.5300       1.7044694     0.080233159
       4594.0200       1.7369695     0.080203235
       4596.5100       1.7459048     0.080173254
       4599.0100       1.7548401     0.080143095
       4601.5000       1.7403428     0.080112999
       4604.0000       1.7258429     0.080082726
       4606.4900       1.7161654     0.080052516
       4608.9800       1.7064878     0.080022250
       4611.4800       1.7162162     0.079991805
       4613.9700       1.7259421     0.079961425
       4616.4700       1.7351545     0.079930866
       4618.9600       1.7443643     0.079900374
       4621.4500       1.7496568     0.079869824
       4623.9500       1.7549519     0.079839096
       4626.4400       1.7782065     0.079808434
       4628.9400       1.8014612     0.079777593
       4631.4300       1.8209612     0.079746819
       4633.9200       1.8404612     0.079715989
       4636.4200       1.8443658     0.079684980
       4638.9100       1.8482679     0.079654038
       4641.4100       1.8493126     0.079622917
       4643.9000       1.8503574     0.079591864
       4646.4000       1.8355297     0.079560631
       4648.8900       1.8207019     0.079529467
       4651.3800       1.7965804     0.079498249
       4653.8800       1.7724590     0.079466849
       4656.3700       1.7543952     0.079435520
       4658.8700       1.7363314     0.079404009
       4661.3600       1.7156697     0.079372570
       4663.8500       1.6950079     0.079341076
       4666.3500       1.6620986     0.079309401
       4668.8400       1.6291867     0.079277797
       4671.3400       1.5999253     0.079246012
       4673.8300       1.5706638     0.079214300
       4676.3200       1.5584594     0.079182533
       4678.8200       1.5462551     0.079150584
       4681.3100       1.5544481     0.079118708
       4683.8100       1.5626385     0.079086650
       4686.3000       1.5736303     0.079054667
       4688.7900       1.5846196     0.079022629
       4691.2900       1.5917958     0.078990409
       4693.7800       1.5989745     0.078958264
       4696.2800       1.5951005     0.078925936
       4698.7700       1.5912264     0.078893683
       4701.2600       1.5819352     0.078861377
       4703.7600       1.5726466     0.078828888
       4706.2500       1.5578214     0.078796475
       4708.7500       1.5429987     0.078763879
       4711.2400       1.5349506     0.078731360
       4713.7300       1.5268999     0.078698788
       4716.2300       1.5139253     0.078666032
       4718.7200       1.5009507     0.078633354
       4721.2200       1.4808076     0.078600491
       4723.7100       1.4606644     0.078567708
       4726.2000       1.4414999     0.078534872
       4728.7000       1.4223354     0.078501852
       4731.1900       1.4000086     0.078468911
       4733.6900       1.3776819     0.078435785
       4736.1800       1.3499685     0.078402739
       4738.6700       1.3222551     0.078369642
       4741.1700       1.2982201     0.078336359
       4743.6600       1.2741850     0.078303157
       4746.1600       1.2436068     0.078269770
       4748.6500       1.2130310     0.078236465
       4751.1400       1.1975754     0.078203108
       4753.6400       1.1821172     0.078169565
       4756.1300       1.1654999     0.078136105
       4758.6300       1.1488800     0.078102459
       4761.1200       1.1258007     0.078068896
       4763.6100       1.1027190     0.078035282
       4766.1100       1.0857889     0.078001481
       4768.6000       1.0688615     0.077967765
       4771.1000       1.0490081     0.077933862
       4773.5900       1.0291573     0.077900044
       4776.0800       1.0010397     0.077866175
       4778.5800      0.97292213     0.077832119
       4781.0700      0.94613660     0.077798149
       4783.5700      0.91935107     0.077763991
       4786.0600      0.88801527     0.077729920
       4788.5600      0.85667948     0.077695661
       4791.0500      0.83829795     0.077661489
       4793.5400      0.81991896     0.077627267
       4796.0400      0.83400189     0.077592858
       4798.5300      0.84808737     0.077558536
       4801.0300      0.88652309     0.077524026
       4803.5200      0.92495882     0.077489604
       4806.0100      0.98763295     0.077455132
       4808.5100       1.0503096     0.077420472
       4811.0000       1.1205107     0.077385902
       4813.5000       1.1907119     0.077351143
       4815.9900       1.2583557     0.077316473
       4818.4800       1.3259995     0.077281755
       4820.9800       1.3823058     0.077246847
       4823.4700       1.4386147     0.077212030
       4825.9700       1.4792544     0.077177024
       4828.4600       1.5198915     0.077142109
       4830.9500       1.5438960     0.077107146
       4833.4500       1.5679006     0.077071993
       4835.9400       1.5744413     0.077036932
       4838.4400       1.5809819     0.077001681
       4840.9300       1.5615022     0.076966523
       4843.4200       1.5420861     0.076931317
       4845.9200       1.5099953     0.076895921
       4848.4100       1.4787841     0.076860618
       4850.9100       1.4422142     0.076825125
       4853.4000       1.4101819     0.076789726
       4855.8900       1.3921207     0.076754279
       4858.3900       1.3752288     0.076718642
       4860.8800       1.3783835     0.076683100
       4863.3800       1.3698752     0.076647367
       4865.8700       1.3804273     0.076611730
       4868.3600       1.3895227     0.076576045
       4870.8600       1.4280296     0.076540169
       4873.3500       1.4716003     0.076504389
       4875.8500       1.5417887     0.076468419
       4878.3400       1.6133168     0.076432545
       4880.8300       1.6843059     0.076396624
       4883.3300       1.7553841     0.076360512
       4885.8200       1.8126690     0.076324497
       4888.3200       1.8699540     0.076288291
       4890.8100       1.9166235     0.076252183
       4893.3000       1.9632929     0.076216028
       4895.8000       2.0002923     0.076179682
       4898.2900       2.0372893     0.076143435
       4900.7900       2.0586501     0.076106995
       4903.2800       2.0800109     0.076070655
       4905.7700       2.0862592     0.076034269
       4908.2700       2.0925101     0.075997691
       4910.7600       2.0928380     0.075961213
       4913.2600       2.0931660     0.075924543
       4915.7500       2.0576231     0.075887973
       4918.2500       2.0220777     0.075851211
       4920.7400       1.9725688     0.075814550
       4923.2300       1.9230574     0.075777844
       4925.7300       1.8649157     0.075740945
       4928.2200       1.8067715     0.075704148
       4930.7200       1.7309779     0.075667158
       4933.2100       1.6551817     0.075630271
       4935.7000       1.5715001     0.075593339
       4938.2000       1.4878160     0.075556213
       4940.6900       1.4143788     0.075519191
       4943.1900       1.3409417     0.075481976
       4945.6800       1.2798462     0.075444864
       4948.1700       1.2187506     0.075407708
       4950.6700       1.1765476     0.075370359
       4953.1600       1.1343471     0.075333114
       4955.6600       1.1196185     0.075295675
       4958.1500       1.1048899     0.075258342
       4960.6400       1.1329922     0.075220964
       4963.1400       1.1610920     0.075183392
       4965.6300       1.2081173     0.075145927
       4968.1300       1.2551426     0.075108267
       4970.6200       1.3123182     0.075070714
       4973.1100       1.3694939     0.075033118
       4975.6100       1.4340009     0.074995326
       4978.1000       1.4985078     0.074957642
       4980.6000       1.5652263     0.074919764
       4983.0900       1.6319449     0.074881993
       4985.5800       1.6951579     0.074844180
       4988.0800       1.7583735     0.074805547
       4990.5700       1.8042600     0.074768842
       4993.0700       1.8501490     0.074730938
       4995.5600       1.8836531     0.074692173
