# data from http://adsabs.harvard.edu/abs/2004MNRAS.347...74P
# via WISEREP
# de-redshifted assuming z=   0.00322667
# phase in rest-frame days relative to JD =        2451278.0
# type is SNII
# phase is       39.4000
# WARNING: fake error spectrum!

       3381.0900     0.028360552     0.057274711
       3382.0900     0.028396422     0.057363690
       3383.0800     0.037209115     0.057451702
       3384.0800     0.048446888     0.057540525
       3385.0800     0.058926602     0.057629269
       3386.0700     0.062273992     0.057717050
       3387.0700     0.061407950     0.057805639
       3388.0700     0.056582680     0.057894150
       3389.0600     0.048667906     0.057981698
       3390.0600     0.038764348     0.058070054
       3391.0600     0.028125998     0.058158331
       3392.0600     0.018389685     0.058246530
       3393.0500    0.0084392155     0.058333770
       3394.0500    0.0051191486     0.058421813
       3395.0500     0.011750611     0.058509779
       3396.0400     0.035452890     0.058596788
       3397.0400     0.073242714     0.058684599
       3398.0400      0.11235777     0.058772331
       3399.0300      0.14480549     0.058859109
       3400.0300      0.15393689     0.058946687
       3401.0300      0.15105425     0.059034186
       3402.0200      0.13936957     0.059120734
       3403.0200      0.12470494     0.059208078
       3404.0200      0.11007523     0.059295345
       3405.0100     0.095250274     0.059381662
       3406.0100     0.081313005     0.059468774
       3407.0100     0.070586511     0.059555808
       3408.0000     0.060137801     0.059641895
       3409.0000     0.048530292     0.059728775
       3410.0000     0.033528421     0.059815577
       3410.9900     0.014628082     0.059901434
       3411.9900   -0.0067886017     0.059988081
       3412.9900    -0.029686658     0.060074651
       3413.9800    -0.054139884     0.060160279
       3414.9800    -0.075593248     0.060246694
       3415.9800    -0.090999601     0.060333032
       3416.9700    -0.096567147     0.060418430
       3417.9700    -0.090839280     0.060504614
       3418.9700    -0.074856523     0.060590720
       3419.9700    -0.049403446     0.060676748
       3420.9600    -0.014184861     0.060761841
       3421.9600     0.025657438     0.060847715
       3422.9600     0.066565401     0.060933513
       3423.9500      0.10354389     0.061018376
       3424.9500      0.13493799     0.061104019
       3425.9500      0.16254679     0.061189586
       3426.9400      0.18707019     0.061274220
       3427.9400      0.20939902     0.061359633
       3428.9400      0.23089879     0.061444968
       3429.9300      0.25264061     0.061529374
       3430.9300      0.27686583     0.061614555
       3431.9300      0.30259445     0.061699660
       3432.9200      0.32569867     0.061783838
       3433.9200      0.34341564     0.061868789
       3434.9200      0.35234991     0.061953663
       3435.9100      0.35177974     0.062037612
       3436.9100      0.34095281     0.062122333
       3437.9100      0.31762027     0.062206977
       3438.9000      0.28471591     0.062290698
       3439.9000      0.25005302     0.062375189
       3440.9000      0.21905941     0.062459603
       3441.8900      0.20116217     0.062543097
       3442.8900      0.19190413     0.062627358
       3443.8900      0.19026412     0.062711541
       3444.8800      0.19581670     0.062794808
       3445.8800      0.20472103     0.062878839
       3446.8800      0.21029544     0.062962793
       3447.8800      0.20818320     0.063046671
       3448.8700      0.18650564     0.063129634
       3449.8700      0.15984193     0.063213359
       3450.8700      0.13504342     0.063297007
       3451.8600      0.12143802     0.063379743
       3452.8600      0.12399815     0.063463239
       3453.8600      0.14267205     0.063546658
       3454.8500      0.17788701     0.063629168
       3455.8500      0.23480637     0.063712435
       3456.8500      0.29894762     0.063795625
       3457.8400      0.36161668     0.063877908
       3458.8400      0.41054746     0.063960946
       3459.8400      0.44146497     0.064043907
       3460.8300      0.45854938     0.064125964
       3461.8300      0.46377133     0.064208774
       3462.8300      0.45732733     0.064291507
       3463.8200      0.44876609     0.064373337
       3464.8200      0.44444306     0.064455919
       3465.8200      0.45479339     0.064538424
       3466.8100      0.47982708     0.064620028
       3467.8100      0.50913140     0.064702381
       3468.8100      0.53636403     0.064784658
       3469.8000      0.55161818     0.064866037
       3470.8000      0.55528122     0.064948163
       3471.8000      0.54550479     0.065030212
       3472.7900      0.51848363     0.065111365
       3473.7900      0.47790199     0.065193263
       3474.7900      0.43448198     0.065275085
       3475.7800      0.39563891     0.065356013
       3476.7800      0.37506987     0.065437683
       3477.7800      0.36533711     0.065519278
       3478.7800      0.36454798     0.065600796
       3479.7700      0.37022906     0.065681424
       3480.7700      0.37799493     0.065762791
       3481.7700      0.38212209     0.065844082
       3482.7600      0.37803112     0.065924486
       3483.7600      0.35693620     0.066005626
       3484.7600      0.32607546     0.066086690
       3485.7500      0.28871519     0.066166869
       3486.7500      0.24809175     0.066247783
       3487.7500      0.20941773     0.066328621
       3488.7400      0.17919765     0.066408575
       3489.7400      0.16187431     0.066489262
       3490.7400      0.17067696     0.066569874
       3491.7300      0.18772395     0.066649604
       3492.7300      0.20456383     0.066730065
       3493.7300      0.20828426     0.066810450
       3494.7200      0.19511678     0.066889957
       3495.7200      0.17100260     0.066970192
       3496.7200      0.13912067     0.067050351
       3497.7100     0.099485977     0.067129634
       3498.7100     0.065458753     0.067209643
       3499.7100     0.045425067     0.067289577
       3500.7000     0.053683439     0.067368636
       3501.7000     0.089121918     0.067448420
       3502.7000      0.13536718     0.067528128
       3503.6900      0.18239408     0.067606964
       3504.6900      0.21169341     0.067686522
       3505.6900      0.23026313     0.067766005
       3506.6900      0.23806705     0.067845412
       3507.6800      0.23502595     0.067923951
       3508.6800      0.22504055     0.068003209
       3509.6800      0.21538826     0.068082391
       3510.6700      0.21150002     0.068160708
       3511.6700      0.22520087     0.068239740
       3512.6700      0.24645361     0.068318698
       3513.6600      0.27140995     0.068396792
       3514.6600      0.29429521     0.068475600
       3515.6600      0.31157052     0.068554333
       3516.6500      0.32239994     0.068632204
       3517.6500      0.32541234     0.068710788
       3518.6500      0.31568582     0.068789297
       3519.6400      0.30135742     0.068866946
       3520.6400      0.28639522     0.068945306
       3521.6400      0.27889884     0.069023590
       3522.6300      0.27835300     0.069101018
       3523.6300      0.27575606     0.069179154
       3524.6300      0.26662217     0.069257214
       3525.6200      0.23797160     0.069334420
       3526.6200      0.20381338     0.069412332
       3527.6200      0.16969009     0.069490169
       3528.6100      0.14450856     0.069567154
       3529.6100      0.13070666     0.069644842
       3530.6100      0.12389585     0.069722455
       3531.6000      0.12201380     0.069799219
       3532.6000      0.12340927     0.069876684
       3533.6000      0.12311670     0.069954074
       3534.6000      0.11752108     0.070031390
       3535.5900      0.10072051     0.070107858
       3536.5900     0.073226495     0.070185026
       3537.5900     0.041921973     0.070262118
       3538.5800     0.011270274     0.070338366
       3539.5800    -0.011706695     0.070415311
       3540.5800    -0.027343235     0.070492181
       3541.5700    -0.034213307     0.070568208
       3542.5700    -0.030296811     0.070644930
       3543.5700    -0.016993837     0.070721577
       3544.5600    0.0010664799     0.070797385
       3545.5600     0.020420202     0.070873884
       3546.5600     0.035300866     0.070950309
       3547.5500     0.047084227     0.071025897
       3548.5500     0.055290136     0.071102174
       3549.5500     0.059858207     0.071178377
       3550.5400     0.061465715     0.071253745
       3551.5400     0.061447874     0.071329800
       3552.5400     0.061319867     0.071405781
       3553.5300     0.060932478     0.071480929
       3554.5300     0.065168056     0.071556763
       3555.5300     0.076608818     0.071632522
       3556.5200      0.10053024     0.071707451
       3557.5200      0.13489682     0.071783063
       3558.5200      0.17058713     0.071858601
       3559.5100      0.20183214     0.071933311
       3560.5100      0.21740443     0.072008702
       3561.5100      0.22384282     0.072084019
       3562.5100      0.22279793     0.072159262
       3563.5000      0.21686296     0.072233679
       3564.5000      0.20894800     0.072308775
       3565.5000      0.20189952     0.072383797
       3566.4900      0.19837184     0.072457996
       3567.4900      0.20290947     0.072532871
       3568.4900      0.21239582     0.072607672
       3569.4800      0.22544915     0.072681653
       3570.4800      0.24101270     0.072756307
       3571.4800      0.25614894     0.072830888
       3572.4700      0.26643128     0.072904651
       3573.4700      0.26893590     0.072979085
       3574.4700      0.25516581     0.073053445
       3575.4600      0.23604651     0.073126990
       3576.4600      0.21659597     0.073201204
       3577.4600      0.20554571     0.073275344
       3578.4500      0.20454137     0.073348671
       3579.4500      0.20800604     0.073422665
       3580.4500      0.21367152     0.073496586
       3581.4400      0.21354177     0.073569695
       3582.4400      0.21585238     0.073643470
       3583.4400      0.22309237     0.073717171
       3584.4300      0.24110128     0.073790062
       3585.4300      0.26831458     0.073863617
       3586.4300      0.29590154     0.073937099
       3587.4200      0.31877745     0.074009774
       3588.4200      0.32564315     0.074083110
       3589.4200      0.32533062     0.074156372
       3590.4200      0.32075556     0.074229562
       3591.4100      0.31648930     0.074301947
       3592.4100      0.31503082     0.074374991
       3593.4100      0.31641569     0.074447961
       3594.4000      0.32117976     0.074520130
       3595.4000      0.33274591     0.074592955
       3596.4000      0.34379117     0.074665706
       3597.3900      0.35042170     0.074737659
       3598.3900      0.34688966     0.074810265
       3599.3900      0.33213457     0.074882798
       3600.3800      0.31001098     0.074954535
       3601.3800      0.28318694     0.075026923
       3602.3800      0.25212284     0.075099238
       3603.3700      0.22583466     0.075170758
       3604.3700      0.20998104     0.075242928
       3605.3700      0.21421300     0.075315025
       3606.3600      0.23765533     0.075386330
       3607.3600      0.26906191     0.075458282
       3608.3600      0.30166371     0.075530161
       3609.3500      0.32085038     0.075601250
       3610.3500      0.33555619     0.075672985
       3611.3500      0.34749289     0.075744647
       3612.3400      0.36069967     0.075815520
       3613.3400      0.37612100     0.075887038
       3614.3400      0.39137264     0.075958482
       3615.3300      0.40568794     0.076029141
       3616.3300      0.41834140     0.076100441
       3617.3300      0.42831370     0.076171668
       3618.3200      0.43494174     0.076242112
       3619.3200      0.43636466     0.076313195
       3620.3200      0.43384320     0.076384205
       3621.3200      0.43160433     0.076455144
       3622.3100      0.43220818     0.076525301
       3623.3100      0.44134270     0.076596095
       3624.3100      0.45400115     0.076666816
       3625.3000      0.46815738     0.076736759
       3626.3000      0.48179334     0.076807336
       3627.3000      0.49225721     0.076877842
       3628.2900      0.49667756     0.076947570
       3629.2900      0.49342874     0.077017932
       3630.2900      0.47391082     0.077088220
       3631.2800      0.45325694     0.077157735
       3632.2800      0.43875075     0.077227880
       3633.2800      0.44277498     0.077297953
       3634.2700      0.46590291     0.077367255
       3635.2700      0.49676053     0.077437184
       3636.2700      0.52865555     0.077507041
       3637.2600      0.55110290     0.077576129
       3638.2600      0.56394663     0.077645843
       3639.2600      0.56461224     0.077715484
       3640.2500      0.54906864     0.077784359
       3641.2500      0.51970693     0.077853857
       3642.2500      0.48503905     0.077923284
       3643.2400      0.45118275     0.077991945
       3644.2400      0.42839355     0.078061228
       3645.2400      0.41379878     0.078130440
       3646.2300      0.40784010     0.078198888
       3647.2300      0.41136029     0.078267957
       3648.2300      0.42178735     0.078336953
       3649.2300      0.43353878     0.078405878
       3650.2200      0.44263524     0.078474043
       3651.2200      0.43965840     0.078542825
       3652.2200      0.43310647     0.078611535
       3653.2100      0.42606984     0.078679488
       3654.2100      0.42416222     0.078748055
       3655.2100      0.42868986     0.078816551
       3656.2000      0.43645324     0.078884291
       3657.2000      0.44619535     0.078952645
       3658.2000      0.45468485     0.079020927
       3659.1900      0.46367215     0.079088455
       3660.1900      0.47310859     0.079156594
       3661.1900      0.48387002     0.079224662
       3662.1800      0.49502445     0.079291979
       3663.1800      0.50391444     0.079359905
       3664.1800      0.50907588     0.079427759
       3665.1700      0.50660308     0.079494864
       3666.1700      0.50102243     0.079562576
       3667.1700      0.49435947     0.079630217
       3668.1600      0.48950120     0.079697111
       3669.1600      0.48777074     0.079764610
       3670.1600      0.48873952     0.079832038
       3671.1500      0.49226532     0.079898721
       3672.1500      0.50023892     0.079966006
       3673.1500      0.50723500     0.080033221
       3674.1400      0.51037841     0.080099693
       3675.1400      0.50425255     0.080166766
       3676.1400      0.48940950     0.080233768
       3677.1400      0.47228516     0.080300698
       3678.1300      0.45651886     0.080366889
       3679.1300      0.45071115     0.080433679
       3680.1300      0.44811483     0.080500397
       3681.1200      0.44671749     0.080566378
       3682.1200      0.44262776     0.080632954
       3683.1200      0.43498104     0.080699460
       3684.1100      0.42608232     0.080765231
       3685.1100      0.41677687     0.080831596
       3686.1100      0.40923620     0.080897890
       3687.1000      0.40206670     0.080963451
       3688.1000      0.39506937     0.081029603
       3689.1000      0.38760917     0.081095685
       3690.0900      0.37979090     0.081161036
       3691.0900      0.37245671     0.081226978
       3692.0900      0.36598525     0.081292848
       3693.0800      0.36211635     0.081357990
       3694.0800      0.35845394     0.081423719
       3695.0800      0.35410345     0.081489378
       3696.0700      0.34655342     0.081554311
       3697.0700      0.33676452     0.081619829
       3698.0700      0.32902860     0.081685277
       3699.0600      0.32558077     0.081750000
       3700.0600      0.33322250     0.081815308
       3701.0600      0.34364458     0.081880544
       3702.0500      0.35322138     0.081945059
       3703.0500      0.35612025     0.082010156
       3704.0500      0.35080597     0.082075182
       3705.0500      0.34022108     0.082140137
       3706.0400      0.32565501     0.082204374
       3707.0400      0.30940338     0.082269189
       3708.0400      0.29200394     0.082333934
       3709.0300      0.27459452     0.082397963
       3710.0300      0.25914013     0.082462568
       3711.0300      0.24561458     0.082527103
       3712.0200      0.23209402     0.082590923
       3713.0200      0.21773318     0.082655318
       3714.0200      0.19880165     0.082719643
       3715.0100      0.18072038     0.082783255
       3716.0100      0.16589542     0.082847440
       3717.0100      0.15820504     0.082911556
       3718.0000      0.15824122     0.082974960
       3719.0000      0.16323361     0.083038936
       3720.0000      0.17164013     0.083102841
       3720.9900      0.18120321     0.083166039
       3721.9900      0.19118175     0.083229805
       3722.9900      0.20052213     0.083293501
       3723.9800      0.20739470     0.083356491
       3724.9800      0.21231722     0.083420048
       3725.9800      0.21806131     0.083483535
       3726.9700      0.22634183     0.083546318
       3727.9700      0.24045751     0.083609666
       3728.9700      0.25834103     0.083672944
       3729.9600      0.27926128     0.083735521
       3730.9600      0.30302301     0.083798660
       3731.9600      0.32756014     0.083861729
       3732.9600      0.34919528     0.083924729
       3733.9500      0.36561907     0.083987030
       3734.9500      0.37005003     0.084049890
       3735.9500      0.37106435     0.084112682
       3736.9400      0.37252283     0.084174776
       3737.9400      0.38086136     0.084237429
       3738.9400      0.39743675     0.084300012
       3739.9300      0.41835762     0.084361900
       3740.9300      0.44179871     0.084424345
       3741.9300      0.46426103     0.084486720
       3742.9200      0.48619560     0.084548403
       3743.9200      0.50681767     0.084610640
       3744.9200      0.52517093     0.084672807
       3745.9100      0.54131088     0.084734284
       3746.9100      0.55626185     0.084796313
       3747.9100      0.57078800     0.084858273
       3748.9000      0.58559237     0.084919545
       3749.9000      0.60156453     0.084981367
       3750.9000      0.61927712     0.085043119
       3751.8900      0.64032089     0.085104186
       3752.8900      0.66356423     0.085165800
       3753.8900      0.68526051     0.085227346
       3754.8800      0.70313904     0.085288207
       3755.8800      0.71179758     0.085349615
       3756.8800      0.71621419     0.085410953
       3757.8700      0.71830397     0.085471610
       3758.8700      0.72109866     0.085532811
       3759.8700      0.72590204     0.085593943
       3760.8600      0.73207156     0.085654396
       3761.8600      0.73956982     0.085715390
       3762.8600      0.74900190     0.085776315
       3763.8600      0.75800978     0.085837172
       3764.8500      0.76514622     0.085897352
       3765.8500      0.76817796     0.085958071
       3766.8500      0.76678685     0.086018721
       3767.8400      0.76266344     0.086078697
       3768.8400      0.75681206     0.086139210
       3769.8400      0.75028072     0.086199655
       3770.8300      0.74446053     0.086259427
       3771.8300      0.74042444     0.086319734
       3772.8300      0.74013125     0.086379973
       3773.8200      0.74304447     0.086439541
       3774.8200      0.74618225     0.086499643
       3775.8200      0.74767941     0.086559676
       3776.8100      0.74342499     0.086619041
       3777.8100      0.73624488     0.086678938
       3778.8100      0.72684400     0.086738766
       3779.8000      0.71706258     0.086797928
       3780.8000      0.70696302     0.086857619
       3781.8000      0.69482982     0.086917242
