# data from http://adsabs.harvard.edu/abs/2006MNRAS.370.1752P
# original filename = 2005cs_20050711_1684_7414_00.dat
# via WISEREP
# de-redshifted assuming z=   0.00200000
# flux divided by   4.22682e-15
# observation JD =        2453562.5
# phase in rest-frame days relative to JD =        2453549.0
# type is SNII
# phase is       13.5000
# WARNING: fake error spectrum!

       1724.9600       13.158600      0.45847649
       1725.7000       15.139777      0.45816323
       1726.4300       17.120853      0.45785434
       1727.1600       17.549434      0.45754559
       1727.9000       17.977816      0.45723275
       1728.6300       15.476541      0.45692427
       1729.3600       12.975365      0.45661594
       1730.1000       10.333563      0.45630352
       1730.8300       7.6918314      0.45599545
       1731.5700       6.7252378      0.45568331
       1732.3000       5.7587042      0.45537553
       1733.0300       6.0728138      0.45506788
       1733.7700       6.3869435      0.45475616
       1734.5000       7.2611496      0.45444879
       1735.2300       8.1353057      0.45414155
       1735.9700       8.0382973      0.45383025
       1736.7000       7.9412188      0.45352329
       1737.4300       6.4389134      0.45321647
       1738.1700       4.9366180      0.45290559
       1738.9000       3.8639642      0.45259904
       1739.6400       2.7913704      0.45228844
       1740.3700       3.1090907      0.45198217
       1741.1000       3.4268411      0.45167603
       1741.8400       4.4855923      0.45136585
       1742.5700       5.5443534      0.45105999
       1743.3000       6.7745872      0.45075427
       1744.0400       8.0048009      0.45044450
       1744.7700       8.9290565      0.45013905
       1745.5000       9.8532821      0.44983375
       1746.2400       10.221242      0.44952440
       1746.9700       10.589212      0.44921936
       1747.7000       10.623618      0.44891447
       1748.4400       10.658025      0.44860553
       1749.1700       10.465188      0.44830091
       1749.9100       10.272352      0.44799225
       1750.6400       9.7485322      0.44768791
       1751.3700       9.2246727      0.44738370
       1752.1100       8.3568278      0.44707546
       1752.8400       7.4889629      0.44677152
       1753.5700       6.3890839      0.44646772
       1754.3100       5.2891949      0.44615990
       1755.0400       3.9487703      0.44585638
       1755.7700       2.6083156      0.44555299
       1756.5100      0.78299677      0.44524558
       1757.2400      -1.0423280      0.44494247
       1757.9700      -2.9662536      0.44463949
       1758.7100      -4.8900991      0.44433250
       1759.4400      -5.7036137      0.44402980
       1760.1800      -6.5170382      0.44372309
       1760.9100      -6.0505096      0.44342066
       1761.6400      -5.5839710      0.44311837
       1762.3800      -4.9101629      0.44281207
       1763.1100      -4.2363849      0.44251005
       1763.8400      -3.8207059      0.44220817
       1764.5800      -3.4050370      0.44190229
       1765.3100      -3.0499895      0.44160068
       1766.0400      -2.6949320      0.44129920
       1766.7800      -2.3069983      0.44099374
       1767.5100      -1.9190746      0.44069254
       1768.2400      -1.4426941      0.44039147
       1768.9800     -0.96631760      0.44008642
       1769.7100     -0.48354387      0.43978563
       1770.4500  -0.00078688551      0.43948086
       1771.1800      0.25951431      0.43918034
       1771.9100      0.51978876      0.43887996
       1772.6500      0.41586401      0.43857560
       1773.3800      0.31190526      0.43827549
       1774.1100     -0.24557466      0.43797552
       1774.8500     -0.80306558      0.43767157
       1775.5800      -1.5007251      0.43737187
       1776.3100      -2.1983477      0.43707231
       1777.0500      -2.3542073      0.43676878
       1777.7800      -2.5100269      0.43646949
       1778.5200      -2.0811354      0.43616623
       1779.2500      -1.6522439      0.43586721
       1779.9800      -1.1407667      0.43556833
       1780.7200     -0.62929557      0.43526549
       1781.4500     -0.27099649      0.43496687
       1782.1800     0.087287785      0.43466840
       1782.9200      0.25575359      0.43436597
       1783.6500      0.42420360      0.43406777
       1784.3800      0.41529191      0.43376970
       1785.1200      0.40637221      0.43346768
       1785.8500      0.31024195      0.43316989
       1786.5800      0.21410868      0.43287222
       1787.3200     0.081995779      0.43257062
       1788.0500    -0.050120923      0.43227323
       1788.7900     -0.22699513      0.43197191
       1789.5200     -0.40385273      0.43167479
       1790.2500     -0.40814955      0.43137780
       1790.9900     -0.41239636      0.43107689
       1791.7200      0.12220622      0.43078018
       1792.4500      0.65683380      0.43048360
       1793.1900       1.4497054      0.43018310
       1793.9200       2.2425361      0.42988679
       1794.6500       2.6223783      0.42959062
       1795.3900       3.0021604      0.42929053
       1796.1200       2.8618237      0.42899463
       1796.8500       2.7214571      0.42869887
       1797.5900       2.2777928      0.42839919
       1798.3200       1.8341385      0.42810370
       1799.0600       1.4413038      0.42780429
       1799.7900       1.0485292      0.42750907
       1800.5200       1.1392965      0.42721398
       1801.2600       1.2300937      0.42691499
       1801.9900       1.6721877      0.42662017
       1802.7200       2.1142817      0.42632549
       1803.4600       2.4838119      0.42602691
       1804.1900       2.8533021      0.42573249
       1804.9200       2.7921005      0.42543822
       1805.6600       2.7308189      0.42514004
       1806.3900       1.9276963      0.42484604
       1807.1200       1.1245437      0.42455216
       1807.8600     0.062794331      0.42425440
       1808.5900     -0.99889579      0.42396080
       1809.3300      -1.4764305      0.42366331
       1810.0600      -1.9538812      0.42336998
       1810.7900      -1.7484822      0.42307678
       1811.5300      -1.5430232      0.42277970
       1812.2600     -0.90785449      0.42248677
       1812.9900     -0.27268281      0.42219398
       1813.7300      0.36897511      0.42189731
       1814.4600       1.0105820      0.42160479
       1815.1900       1.1718226      0.42131240
       1815.9300       1.3330133      0.42101614
       1816.6600       1.0330463      0.42072402
       1817.4000      0.73305528      0.42042803
       1818.1300      0.22074294      0.42013618
       1818.8600     -0.29155540      0.41984446
       1819.6000     -0.68212360      0.41954889
       1820.3300      -1.0726338      0.41925744
       1821.0600     -0.99359278      0.41896612
       1821.8000     -0.91451176      0.41867095
       1822.5300     -0.52509177      0.41837991
       1823.2600     -0.13567578      0.41808900
       1824.0000      0.21655715      0.41779424
       1824.7300      0.56877807      0.41750359
       1825.4600      0.81193327      0.41721309
       1826.2000       1.0550805      0.41691873
       1826.9300       1.1978976      0.41662849
       1827.6700       1.3407147      0.41633441
       1828.4000       1.4456347      0.41604444
       1829.1300       1.5505646      0.41575460
       1829.8700       1.7056041      0.41546093
       1830.6000       1.8606235      0.41517136
       1831.3300       1.8241166      0.41488193
       1832.0700       1.7875496      0.41458866
       1832.8000       1.2750423      0.41429949
       1833.5300      0.76253088      0.41401046
       1834.2700      0.14248107      0.41371760
       1835.0000     -0.47751873      0.41342883
       1835.7300     -0.70660425      0.41314020
       1836.4700     -0.93565277      0.41284775
       1837.2000     -0.87295386      0.41255938
       1837.9400     -0.81024795      0.41226721
       1838.6700     -0.69962393      0.41197911
       1839.4000     -0.58899491      0.41169114
       1840.1400     -0.44108381      0.41139937
       1840.8700     -0.29316570      0.41111167
       1841.6000    -0.089904382      0.41082411
       1842.3400      0.11335254      0.41053274
       1843.0700      0.28764365      0.41024545
       1843.8000      0.46191876      0.40995828
       1844.5400      0.52458367      0.40966732
       1845.2700      0.58723257      0.40938043
       1846.0000      0.53662496      0.40909366
       1846.7400      0.48600734      0.40880311
       1847.4700      0.35298607      0.40851661
       1848.2100      0.21996879      0.40822633
       1848.9400      0.11098709      0.40794010
       1849.6700    0.0020233044      0.40765400
       1850.4100     0.020857963      0.40736412
       1851.1400     0.039704944      0.40707829
       1851.8700      0.14611476      0.40679260
       1852.6100      0.25252598      0.40650312
       1853.3400      0.37857793      0.40621769
       1854.0700      0.50463488      0.40593239
       1854.8100      0.67279083      0.40564332
       1855.5400      0.84095378      0.40535829
       1856.2800       1.0579010      0.40506949
       1857.0100       1.2748322      0.40478473
       1857.7400       1.3705004      0.40450010
       1858.4800       1.4661186      0.40421170
       1859.2100       1.2968864      0.40392733
       1859.9400       1.1276142      0.40364310
       1860.6800      0.76780388      0.40335511
       1861.4100      0.40797952      0.40307114
       1862.1400   -0.0088611436      0.40278730
       1862.8800     -0.42567588      0.40249972
       1863.6100     -0.66986928      0.40221615
       1864.3400     -0.91400866      0.40193271
       1865.0800     -0.80683930      0.40164552
       1865.8100     -0.69962693      0.40136235
       1866.5500     -0.31669917      0.40107543
       1867.2800     0.066247187      0.40079253
       1868.0100      0.57254478      0.40050975
       1868.7500       1.0788150      0.40022324
       1869.4800       1.4114282      0.39994073
       1870.2100       1.7439814      0.39965836
       1870.9500       1.6879607      0.39937224
       1871.6800       1.6319201      0.39909013
       1872.4100       1.4043568      0.39880815
       1873.1500       1.1768036      0.39852244
       1873.8800       1.0074714      0.39824073
       1874.6100      0.83814525      0.39795915
       1875.3500      0.76492134      0.39767384
       1876.0800      0.69171243      0.39739252
       1876.8200      0.71171423      0.39710748
       1877.5500      0.73170602      0.39682643
       1878.2800      0.69121433      0.39654551
       1879.0200      0.65070063      0.39626087
       1879.7500      0.47338494      0.39598022
       1880.4800      0.29610226      0.39569969
       1881.2200      0.31763535      0.39541546
       1881.9500      0.33923345      0.39513519
       1882.6800      0.74804713      0.39485506
       1883.4200       1.1568598      0.39457123
       1884.1500       1.5591862      0.39429136
       1884.8900       1.9614627      0.39400780
       1885.6200       2.0283054      0.39372820
       1886.3500       2.0950881      0.39344873
       1887.0900       1.7985517      0.39316556
       1887.8200       1.5019754      0.39288635
       1888.5500      0.93598184      0.39260728
       1889.2900      0.37001230      0.39232451
       1890.0200    -0.069400486      0.39204570
       1890.7500     -0.50874566      0.39176702
       1891.4900     -0.55469539      0.39148466
       1892.2200     -0.60061012      0.39120624
       1892.9500     -0.44659385      0.39092796
       1893.6900     -0.29257259      0.39064599
       1894.4200     -0.10673728      0.39036797
       1895.1600     0.079105830      0.39008627
       1895.8900      0.30300557      0.38980851
       1896.6200      0.52690711      0.38953088
       1897.3600      0.76021844      0.38924958
       1898.0900      0.99351477      0.38897222
       1898.8200       1.1461878      0.38869499
       1899.5600       1.2988268      0.38841409
       1900.2900       1.3096088      0.38813711
       1901.0200       1.3203609      0.38786027
       1901.7600       1.1648613      0.38757977
       1902.4900       1.0093418      0.38730320
       1903.2200      0.73458057      0.38702675
       1903.9600      0.45983137      0.38674665
       1904.6900      0.25560356      0.38647046
       1905.4300     0.051410068      0.38619063
       1906.1600     0.031179724      0.38591470
       1906.8900     0.010972785      0.38563891
       1907.6300      0.11633610      0.38535948
       1908.3600      0.22171012      0.38508395
       1909.0900      0.37958212      0.38480855
       1909.8300      0.53744711      0.38452951
       1910.5600      0.65564357      0.38425437
       1911.2900      0.77382603      0.38397936
       1912.0300      0.81676218      0.38370072
       1912.7600      0.85970134      0.38342598
       1913.4900      0.91903562      0.38315136
       1914.2300      0.97837989      0.38287312
       1914.9600       1.0856663      0.38259877
       1915.7000       1.1929467      0.38232079
       1916.4300       1.2784929      0.38204670
       1917.1600       1.3640192      0.38177273
       1917.9000       1.3481862      0.38149515
       1918.6300       1.3323031      0.38122145
       1919.3600       1.0866165      0.38094788
       1920.1000      0.84090177      0.38067070
       1920.8300      0.43359638      0.38039739
       1921.5600     0.026336504      0.38012421
       1922.3000     -0.14711395      0.37984742
       1923.0300     -0.32049289      0.37957451
       1923.7700     -0.13482462      0.37929798
       1924.5000     0.050859363      0.37902533
       1925.2300      0.31664316      0.37875280
       1925.9700      0.58240266      0.37847667
       1926.7000      0.72369350      0.37820441
       1927.4300      0.86493534      0.37793227
       1928.1700      0.76556846      0.37765654
       1928.9000      0.66616557      0.37738466
       1929.6300      0.38721957      0.37711292
       1930.3700      0.10830458      0.37683758
       1931.1000    -0.023535472      0.37656609
       1931.8300     -0.15532451      0.37629474
       1932.5700    -0.038532921      0.37601980
       1933.3000     0.078269971      0.37574870
       1934.0400      0.24868125      0.37547402
       1934.7700      0.41907862      0.37520319
       1935.5000      0.52673308      0.37493248
       1936.2400      0.63436753      0.37465820
       1936.9700      0.64372631      0.37438775
       1937.7000      0.65307208      0.37411744
       1938.4400      0.59706944      0.37384355
       1939.1700      0.54107981      0.37357349
       1939.9000      0.54782109      0.37330356
       1940.6400      0.55458437      0.37303007
       1941.3700      0.66207479      0.37276040
       1942.1000      0.76957222      0.37249086
       1942.8400      0.90965984      0.37221776
       1943.5700       1.0497495      0.37194848
       1944.3100       1.1952571      0.37167565
       1945.0400       1.3407747      0.37140663
       1945.7700       1.5086967      0.37113773
       1946.5100       1.6766186      0.37086529
       1947.2400       1.8150449      0.37059666
       1947.9700       1.9534412      0.37032816
       1948.7100       1.9485402      0.37005611
       1949.4400       1.9436093      0.36978786
       1950.1700       1.8050230      0.36951975
       1950.9100       1.6664266      0.36924809
       1951.6400       1.5140177      0.36898023
       1952.3800       1.3616287      0.36870884
       1953.1100       1.2513278      0.36844124
       1953.8400       1.1410368      0.36817377
       1954.5800       1.0731539      0.36790277
       1955.3100       1.0052810      0.36763556
       1956.0400      0.97781278      0.36736848
       1956.7800      0.95034957      0.36709787
       1957.5100      0.95708585      0.36683104
       1958.2400      0.96382113      0.36656435
       1958.9800      0.96071954      0.36629413
       1959.7100      0.95759994      0.36602769
       1960.4400      0.87271282      0.36576138
       1961.1800      0.78781168      0.36549156
       1961.9100      0.64722597      0.36522551
       1962.6500      0.50665126      0.36495594
       1963.3800      0.41158920      0.36469015
       1964.1100      0.31654014      0.36442449
       1964.8500      0.27692262      0.36415531
       1965.5800      0.23730609      0.36388991
       1966.3100      0.19821166      0.36362463
       1967.0500      0.15912723      0.36335585
       1967.7800      0.15856513      0.36309082
       1968.5100      0.15803303      0.36282593
       1969.2500      0.28342685      0.36255754
       1969.9800      0.40884668      0.36229291
       1970.7100      0.64614477      0.36202840
       1971.4500      0.88345186      0.36176040
       1972.1800       1.1607405      0.36149615
       1972.9200       1.4380232      0.36122841
       1973.6500       1.6538942      0.36096441
       1974.3800       1.8697252      0.36070055
       1975.1200       1.9121533      0.36043320
       1975.8500       1.9545414      0.36016959
       1976.5800       1.8250768      0.35990611
       1977.3200       1.6955722      0.35963915
       1978.0500       1.4625979      0.35937592
       1978.7800       1.2296136      0.35911283
       1979.5200      0.99606425      0.35884626
       1980.2500      0.76254288      0.35858342
       1980.9800      0.64816415      0.35832071
       1981.7200      0.53381042      0.35805452
       1982.4500      0.51634010      0.35779207
       1983.1900      0.49886979      0.35752615
       1983.9200      0.48118342      0.35726395
       1984.6500      0.46349806      0.35700188
       1985.3900      0.44855222      0.35673634
       1986.1200      0.43361839      0.35647453
       1986.8500      0.46596953      0.35621284
       1987.5900      0.49832668      0.35594770
       1988.3200      0.55218291      0.35568626
       1989.0500      0.60603215      0.35542496
       1989.7900      0.63110191      0.35516020
       1990.5200      0.65616967      0.35489915
       1991.2600      0.67027935      0.35463466
       1991.9900      0.68439704      0.35437386
       1992.7200      0.72877047      0.35411319
       1993.4600      0.77314990      0.35384909
       1994.1900      0.84340625      0.35358868
       1994.9200      0.91366460      0.35332839
       1995.6600      0.99062622      0.35306467
       1996.3900       1.0675828      0.35280464
       1997.1200       1.1131415      0.35254474
       1997.8600       1.1586801      0.35228141
       1998.5900       1.1295046      0.35202176
       1999.3200       1.1003291      0.35176224
       2000.0600       1.0614817      0.35149929
       2000.7900       1.0226543      0.35124003
       2001.5300       1.0681930      0.35097734
       2002.2600       1.1137316      0.35071833
       2002.9900       1.1613507      0.35045944
       2003.7300       1.2089397      0.35019714
       2004.4600       1.1348556      0.34993851
       2005.1900       1.0607415      0.34968001
       2005.9300      0.89902682      0.34941810
       2006.6600      0.73730809      0.34915985
       2007.3900      0.56674268      0.34890173
       2008.1300      0.39619628      0.34864020
       2008.8600      0.29316470      0.34838233
       2009.5900      0.19016913      0.34812459
       2010.3300      0.21863454      0.34786345
       2011.0600      0.24711595      0.34760596
       2011.8000      0.33351437      0.34734508
       2012.5300      0.41990178      0.34708784
       2013.2600      0.45994339      0.34683074
       2014.0000      0.49996699      0.34657024
       2014.7300      0.47263080      0.34631339
       2015.4600      0.44527760      0.34605666
       2016.2000      0.35782499      0.34579655
       2016.9300      0.27038037      0.34554007
       2017.6600      0.21147518      0.34528373
