# data from http://adsabs.harvard.edu/abs/2014ApJ...787..139D
# via WISEREP
# de-redshifted assuming z=   0.00259500
# phase in rest-frame days relative to JD =        2456002.5
# type is SNII
# phase is       28.9000
# WARNING: fake error spectrum!

       3652.6800      0.43881402     0.051256572
       3658.1800      0.43791319     0.051259415
       3663.6800      0.45846713     0.051262119
       3669.1800      0.49400018     0.051264685
       3674.6800      0.55052488     0.051267113
       3680.1900      0.60726208     0.051269407
       3685.6900      0.66007991     0.051271559
       3691.1900      0.75276335     0.051273574
       3696.6900      0.82036506     0.051275452
       3702.1900      0.91288594     0.051277194
       3707.6900       1.0151471     0.051278799
       3713.1900       1.0795042     0.051280268
       3718.6900       1.1456320     0.051281601
       3724.2000       1.1907374     0.051282801
       3729.7000       1.2065565     0.051283863
       3735.2000       1.2410371     0.051284790
       3740.7000       1.2496912     0.051285583
       3746.2000       1.2805576     0.051286241
       3751.7000       1.2755539     0.051286765
       3757.2000       1.2378315     0.051287154
       3762.7000       1.2234471     0.051287411
       3768.2100       1.2039684     0.051287534
       3773.7100       1.1463767     0.051287523
       3779.2100       1.0546404     0.051287380
       3784.7100      0.96213222     0.051287105
       3790.2100      0.90526607     0.051286697
       3795.7100      0.81347984     0.051286157
       3801.2100      0.68882401     0.051285485
       3806.7100      0.62036596     0.051284682
       3812.2100      0.52777334     0.051283748
       3817.7200      0.49962495     0.051282681
       3823.2200      0.19542317     0.051281485
       3828.7200      0.36856248     0.051280159
       3834.2200      0.37892935     0.051278703
       3839.7200      0.35390574     0.051277117
       3845.2200      0.38150018     0.051275402
       3850.7200      0.39068834     0.051273557
       3856.2200      0.39801035     0.051271584
       3861.7300      0.45901471     0.051269478
       3867.2300      0.50208863     0.051267247
       3872.7300      0.55042862     0.051264888
       3878.2300      0.62668089     0.051262401
       3883.7300      0.66700781     0.051259787
       3889.2300      0.82049582     0.051257045
       3894.7300      0.94081003     0.051254177
       3900.2300       1.0967944     0.051251181
       3905.7400       1.2601798     0.051248054
       3911.2400       1.4203051     0.051244806
       3916.7400       1.5450963     0.051241432
       3922.2400       1.6632129     0.051237932
       3927.7400       1.7690247     0.051234307
       3933.2400       1.8183436     0.051230557
       3938.7400       1.8394206     0.051226682
       3944.2400       1.9243280     0.051222682
       3949.7500       1.9284054     0.051218551
       3955.2500       1.9569016     0.051214303
       3960.7500       1.9641210     0.051209932
       3966.2500       1.9734108     0.051205437
       3971.7500       1.9789866     0.051200819
       3977.2500       1.9774700     0.051196078
       3982.7500       1.9408191     0.051191214
       3988.2500       1.9498184     0.051186228
       3993.7600       1.8970578     0.051181111
       3999.2600       1.8631584     0.051175881
       4004.7600       1.7910825     0.051170529
       4010.2600       1.7115874     0.051165057
       4015.7600       1.6850436     0.051159463
       4021.2600       1.6426262     0.051153749
       4026.7600       1.6134762     0.051147914
       4032.2600       1.6578641     0.051141959
       4037.7700       1.6961587     0.051135874
       4043.2700       1.7087359     0.051129679
       4048.7700       1.7772158     0.051123366
       4054.2700       1.7849800     0.051116933
       4059.7700       1.8119052     0.051110382
       4065.2700       1.7703869     0.051103712
       4070.7700       1.7526607     0.051096924
       4076.2700       1.7049310     0.051090018
       4081.7800       1.6524973     0.051082981
       4087.2800       1.6141482     0.051075840
       4092.7800       1.5667181     0.051068582
       4098.2800       1.5358155     0.051061207
       4103.7800       1.5281874     0.051053715
       4109.2800       1.5369960     0.051046107
       4114.7800       1.5382492     0.051038384
       4120.2800       1.5362514     0.051030544
       4125.7900       1.5362968     0.051022575
       4131.2900       1.5048493     0.051014504
       4136.7900       1.4652016     0.051006319
       4142.2900       1.4128042     0.050998020
       4147.7900       1.3909190     0.050989605
       4153.2900       1.3754722     0.050981077
       4158.7900       1.3262713     0.050972435
       4164.2900       1.3139393     0.050963680
       4169.7900       1.2981838     0.050954811
       4175.3000       1.3183164     0.050945813
       4180.8000       1.2856157     0.050936719
       4186.3000       1.2712041     0.050927512
       4191.8000       1.2022975     0.050918193
       4197.3000       1.1597712     0.050908763
       4202.8000       1.1109880     0.050899220
       4208.3000       1.0645296     0.050889567
       4213.8000       1.0000000     0.050879802
       4219.3100      0.97094987     0.050869908
       4224.8100      0.96280421     0.050859922
       4230.3100      0.93197421     0.050849826
       4235.8100      0.92923175     0.050839620
       4241.3100      0.91873411     0.050829304
       4246.8100      0.94134580     0.050818879
       4252.3100      0.96388485     0.050808345
       4257.8100      0.97742463     0.050797702
       4263.3200       1.0491827     0.050786930
       4268.8200       1.1174809     0.050776070
       4274.3200       1.1904559     0.050765102
       4279.8200       1.2559208     0.050754027
       4285.3200       1.2803305     0.050742844
       4290.8200       1.3094079     0.050731553
       4296.3200       1.3405104     0.050720156
       4301.8200       1.3365147     0.050708652
       4307.3300       1.3296313     0.050697021
       4312.8300       1.3371504     0.050685304
       4318.3300       1.3647930     0.050673482
       4323.8300       1.3599165     0.050661555
       4329.3300       1.3789684     0.050649522
       4334.8300       1.4182710     0.050637384
       4340.3300       1.4208591     0.050625141
       4345.8300       1.4121958     0.050612794
       4351.3300       1.4482837     0.050600343
       4356.8400       1.4665365     0.050587766
       4362.3400       1.4578551     0.050575107
       4367.8400       1.4669906     0.050562345
       4373.3400       1.4494097     0.050549480
       4378.8400       1.4390392     0.050536512
       4384.3400       1.4353160     0.050523442
       4389.8400       1.4247639     0.050510270
       4395.3400       1.4004904     0.050496995
       4400.8500       1.4012169     0.050483595
       4406.3500       1.3414185     0.050470118
       4411.8500       1.2943879     0.050456539
       4417.3500       1.2485107     0.050442860
       4422.8500       1.2174718     0.050429080
       4428.3500       1.1528060     0.050415200
       4433.8500       1.1541591     0.050401219
       4439.3500       1.1092263     0.050387139
       4444.8600       1.0758264     0.050372934
       4450.3600       1.0413276     0.050358656
       4455.8600       1.0453687     0.050344278
       4461.3600       1.0118053     0.050329802
       4466.8600       1.0405648     0.050315227
       4472.3600       1.0495187     0.050300555
       4477.8600       1.0532328     0.050285784
       4483.3600       1.0849982     0.050270916
       4488.8700       1.1282328     0.050255924
       4494.3700       1.1961406     0.050240862
       4499.8700       1.2718307     0.050225703
       4505.3700       1.3295133     0.050210448
       4510.8700       1.4100527     0.050195096
       4516.3700       1.5265710     0.050179649
       4521.8700       1.5870505     0.050164106
       4527.3700       1.6645205     0.050148468
       4532.8800       1.7113422     0.050132706
       4538.3800       1.7346985     0.050116878
       4543.8800       1.7550581     0.050100955
       4549.3800       1.8222031     0.050084938
       4554.8800       1.8279513     0.050068827
       4560.3800       1.8842535     0.050052623
       4565.8800       1.9147203     0.050036325
       4571.3800       1.9464221     0.050019934
       4576.8900       1.9584272     0.050003421
       4582.3900       1.9876771     0.049986844
       4587.8900       1.9624228     0.049970176
       4593.3900       1.9730203     0.049953415
       4598.8900       1.9665456     0.049936563
       4604.3900       1.9684526     0.049919619
       4609.8900       1.9718398     0.049902584
       4615.3900       1.9244188     0.049885458
       4620.9000       1.8711224     0.049868210
       4626.4000       1.8730385     0.049850903
       4631.9000       1.8306484     0.049833506
       4637.4000       1.7715129     0.049816019
       4642.9000       1.7680803     0.049798443
       4648.4000       1.7169452     0.049780777
       4653.9000       1.6952143     0.049763022
       4659.4000       1.6395841     0.049745179
       4664.9100       1.6443062     0.049727215
       4670.4100       1.5977207     0.049709195
       4675.9100       1.5801126     0.049691087
       4681.4100       1.5483563     0.049672892
       4686.9100       1.5152107     0.049654609
       4692.4100       1.4783691     0.049636239
       4697.9100       1.4521794     0.049617783
       4703.4100       1.4072376     0.049599240
       4708.9200       1.3411006     0.049580576
       4714.4200       1.3077370     0.049561861
       4719.9200       1.2352070     0.049543060
       4725.4200       1.1595351     0.049524174
       4730.9200       1.1118053     0.049505202
       4736.4200       1.0485380     0.049486146
       4741.9200      0.99686705     0.049467005
       4747.4200      0.96492009     0.049447780
       4752.9200      0.95049037     0.049428471
       4758.4300      0.97416455     0.049409043
       4763.9300       1.0024882     0.049389567
       4769.4300       1.0983745     0.049370007
       4774.9300       1.2001181     0.049350365
       4780.4300       1.3066201     0.049330639
       4785.9300       1.4078187     0.049310832
       4791.4300       1.4905467     0.049290942
       4796.9300       1.6066291     0.049270971
       4802.4400       1.6485561     0.049250882
       4807.9400       1.6803850     0.049230747
       4813.4400       1.6654014     0.049210532
       4818.9400       1.6598983     0.049190236
       4824.4400       1.6844352     0.049169860
       4829.9400       1.6636215     0.049149404
       4835.4400       1.6874046     0.049128867
       4840.9400       1.7591718     0.049108251
       4846.4500       1.7840810     0.049087518
       4851.9500       1.8563113     0.049066744
       4857.4500       1.9219125     0.049045891
       4862.9500       1.9508899     0.049024959
       4868.4500       1.9544224     0.049003949
       4873.9500       1.9666546     0.048982861
       4879.4500       1.9591718     0.048961696
       4884.9500       1.9327098     0.048940453
       4890.4600       1.8724755     0.048919094
       4895.9600       1.8154195     0.048897697
       4901.4600       1.7416727     0.048876224
       4906.9600       1.6703414     0.048854674
       4912.4600       1.6369143     0.048833048
       4917.9600       1.5722666     0.048811347
       4923.4600       1.5822285     0.048789570
       4928.9600       1.5706230     0.048767718
       4934.4700       1.5507628     0.048745751
       4939.9700       1.5969669     0.048723749
       4945.4700       1.6619324     0.048701673
       4950.9700       1.7401562     0.048679522
       4956.4700       1.7733473     0.048657298
       4961.9700       1.8224119     0.048635001
       4967.4700       1.8418180     0.048612630
       4972.9700       1.8731929     0.048590186
       4978.4800       1.9037868     0.048567628
       4983.9800       1.9380948     0.048545039
       4989.4800       1.9172539     0.048522734
       4994.9800       1.9200236     0.048499495
       5000.4800       1.9241464     0.048476066
       5005.9800       1.8837632     0.048454025
       5011.4800       1.8731838     0.048431390
       5016.9800       1.8216854     0.048408660
       5022.4800       1.7543589     0.048385693
       5027.9900       1.7047221     0.048361111
       5033.4900       1.6352070     0.048337888
       5038.9900       1.5597984     0.048315714
       5044.4900       1.4642481     0.048292213
       5049.9900       1.3940429     0.048268224
       5055.4900       1.3304940     0.048245529
       5060.9900       1.2740919     0.048221328
       5066.4900       1.2405013     0.048196445
       5072.0000       1.2162005     0.048173720
       5077.5000       1.2126771     0.048150748
       5083.0000       1.2368235     0.048126210
       5088.5000       1.2834363     0.048102234
       5094.0000       1.3168362     0.048078475
       5099.5000       1.3680621     0.048054563
       5105.0000       1.4496549     0.048030694
       5110.5000       1.4694606     0.048006383
       5116.0100       1.5247639     0.047981484
       5121.5100       1.5698057     0.047957066
       5127.0100       1.6002633     0.047933370
       5132.5100       1.6339175     0.047908818
       5138.0100       1.6487196     0.047884381
       5143.5100       1.6763803     0.047859306
       5149.0100       1.7111696     0.047834934
       5154.5100       1.7239012     0.047810345
       5160.0200       1.7185252     0.047784906
       5165.5200       1.7094715     0.047760671
       5171.0200       1.6835997     0.047736070
       5176.5200       1.6693244     0.047710991
       5182.0200       1.6919542     0.047685117
       5187.5200       1.6872594     0.047660496
       5193.0200       1.6369234     0.047635884
       5198.5200       1.6480748     0.047610517
       5204.0200       1.6653651     0.047585087
       5209.5300       1.6674900     0.047559744
       5215.0300       1.6358972     0.047534291
       5220.5300       1.6418543     0.047508769
       5226.0300       1.6591809     0.047483220
       5231.5300       1.6428078     0.047457988
       5237.0300       1.7113694     0.047432169
       5242.5300       1.7082183     0.047406323
       5248.0400       1.7251725     0.047380585
       5253.5400       1.7499637     0.047355030
       5259.0400       1.8043680     0.047329199
       5264.5400       1.7896204     0.047303120
       5270.0400       1.8089175     0.047277482
       5275.5400       1.8535416     0.047251367
       5281.0400       1.8527697     0.047224861
       5286.5400       1.8170995     0.047198786
       5292.0400       1.8176807     0.047172620
       5297.5500       1.8687432     0.047146085
       5303.0500       1.8492826     0.047119969
       5308.5500       1.8450509     0.047093701
       5314.0500       1.8276426     0.047067354
       5319.5500       1.8155921     0.047040811
       5325.0500       1.8025881     0.047014468
       5330.5500       1.8114057     0.046987796
       5336.0500       1.8018253     0.046960640
       5341.5600       1.7901653     0.046934194
       5347.0600       1.7699964     0.046907878
       5352.5600       1.7952325     0.046880708
       5358.0600       1.7544224     0.046853798
       5363.5600       1.7328914     0.046826913
       5369.0600       1.7438885     0.046799972
       5374.5600       1.7277334     0.046772548
       5380.0600       1.7187250     0.046745558
       5385.5700       1.6853069     0.046719278
       5391.0700       1.6803215     0.046691840
       5396.5700       1.6393661     0.046663544
       5402.0700       1.6358972     0.046636524
       5407.5700       1.6248093     0.046609563
       5413.0700       1.5866963     0.046581979
       5418.5700       1.5763894     0.046554472
       5424.0700       1.5672902     0.046527635
       5429.5800       1.5758627     0.046499911
       5435.0800       1.5685797     0.046471938
       5440.5800       1.5588358     0.046444729
       5446.0800       1.5708500     0.046417159
       5451.5800       1.5840538     0.046389016
       5457.0800       1.5916001     0.046360706
       5462.5800       1.5682347     0.046332838
       5468.0800       1.6034871     0.046305489
       5473.5900       1.5633218     0.046277703
       5479.0900       1.5869960     0.046249649
       5484.5900       1.6185162     0.046221938
       5490.0900       1.6034326     0.046193583
       5495.5900       1.5821286     0.046164750
       5501.0900       1.5926898     0.046136885
       5506.5900       1.6028787     0.046108738
       5512.0900       1.5577279     0.046080336
       5517.6000       1.5705140     0.046052430
       5523.1000       1.5458046     0.046024068
       5528.6000       1.5340265     0.045995628
       5534.1000       1.5463858     0.045966968
       5539.6000       1.5176716     0.045938461
       5545.1000       1.5131311     0.045909872
       5550.6000       1.5082819     0.045881424
       5556.1000       1.4770795     0.045853091
       5561.6000       1.4801217     0.045824474
       5567.1100       1.4771704     0.045795428
       5572.6100       1.4746004     0.045766766
       5578.1100       1.4312568     0.045737826
       5583.6100       1.4018525     0.045709065
       5589.1100       1.4305122     0.045680540
       5594.6100       1.4267708     0.045651248
       5600.1100       1.4168816     0.045622383
       5605.6100       1.4001271     0.045593319
       5611.1200       1.3827007     0.045564273
       5616.6200       1.3947784     0.045535249
       5622.1200       1.3671268     0.045506047
       5627.6200       1.3698874     0.045477002
       5633.1200       1.3641936     0.045447969
       5638.6200       1.3881584     0.045418476
       5644.1200       1.3956865     0.045389029
       5649.6200       1.3756992     0.045359801
       5655.1300       1.3546586     0.045330136
       5660.6300       1.3627679     0.045300978
       5666.1300       1.3485652     0.045272042
       5671.6300       1.3676353     0.045241569
       5677.1300       1.3729205     0.045212242
       5682.6300       1.3440610     0.045183532
       5688.1300       1.3377770     0.045153715
       5693.6300       1.3107882     0.045123569
       5699.1400       1.3236288     0.045094529
       5704.6400       1.3393117     0.045065282
       5710.1400       1.3241736     0.045035296
       5715.6400       1.3183255     0.045004644
       5721.1400       1.3132855     0.044975209
       5726.6400       1.2796131     0.044945530
       5732.1400       1.2830730     0.044914710
       5737.6400       1.2843898     0.044885002
       5743.1500       1.2602434     0.044855915
       5748.6500       1.2470033     0.044825691
       5754.1500       1.2397657     0.044795188
       5759.6500       1.2353887     0.044765370
       5765.1500       1.2410825     0.044735803
       5770.6500       1.1961860     0.044706056
       5776.1500       1.2137123     0.044675221
       5781.6500       1.2165456     0.044644826
       5787.1500       1.2284145     0.044614615
       5792.6600       1.2362332     0.044584428
       5798.1600       1.2503542     0.044554052
       5803.6600       1.2779150     0.044524021
       5809.1600       1.2985924     0.044493667
       5814.6600       1.2852252     0.044463129
       5820.1600       1.3166182     0.044432826
       5825.6600       1.3161914     0.044402327
       5831.1700       1.3325282     0.044371948
       5836.6700       1.3547948     0.044341588
       5842.1700       1.3483382     0.044310589
       5847.6700       1.3481747     0.044281087
       5853.1700       1.3540955     0.044263266
       5858.6700       1.3576916     0.044291750
       5864.1700       1.3660098     0.044402558
