# data from http://adsabs.harvard.edu/abs/2009ApJ...700.1456B
# original filename = 2005cs_20050709_1674_7413_00.dat
# via WISEREP
# de-redshifted assuming z=   0.00200000
# flux divided by   4.84295e-15
# observation JD =        2453560.5
# phase in rest-frame days relative to JD =        2453549.0
# type is SNII
# phase is       11.5000
# WARNING: fake error spectrum!

       1736.9900      -1.7738701      0.30308651
       1737.7200      0.14160526      0.30293871
       1738.4500       2.0570966      0.30279098
       1739.1900       3.4902542      0.30264126
       1739.9200       4.9233918      0.30249363
       1740.6600       5.6438799      0.30234402
       1741.3900       6.3643381      0.30219649
       1742.1200       6.9144749      0.30204901
       1742.8600       7.4646017      0.30189956
       1743.5900       8.0602620      0.30175218
       1744.3200       8.6559224      0.30160486
       1745.0600       8.9649312      0.30145556
       1745.7900       9.2739301      0.30130834
       1746.5200       9.4003355      0.30116117
       1747.2600       9.5267310      0.30101203
       1747.9900       10.285683      0.30086497
       1748.7200       11.044675      0.30071795
       1749.4600       12.406686      0.30056897
       1750.1900       13.768698      0.30042206
       1750.9200       14.243504      0.30027519
       1751.6600       14.718211      0.30012637
       1752.3900       13.822619      0.29997961
       1753.1300       12.926927      0.29983090
       1753.8600       12.052903      0.29968424
       1754.5900       11.178879      0.29953764
       1755.3300       11.035588      0.29938908
       1756.0600       10.892297      0.29924257
       1756.7900       10.789148      0.29909612
       1757.5300       10.685998      0.29894772
       1758.2600       10.280690      0.29880137
       1758.9900       9.8754219      0.29865508
       1759.7300       9.5795039      0.29850683
       1760.4600       9.2835959      0.29836064
       1761.1900       9.2446129      0.29821449
       1761.9300       9.2056398      0.29806640
       1762.6600       8.9829549      0.29792036
       1763.4000       8.7602600      0.29777238
       1764.1300       8.1506401      0.29762644
       1764.8600       7.5410001      0.29748055
       1765.6000       6.9298225      0.29733272
       1766.3300       6.3186348      0.29718694
       1767.0600       6.0177441      0.29704121
       1767.8000       5.7168734      0.29689354
       1768.5300       5.8299283      0.29674791
       1769.2600       5.9430132      0.29660233
       1770.0000       6.4331176      0.29645481
       1770.7300       6.9232521      0.29630934
       1771.4600       7.3109161      0.29616391
       1772.2000       7.6985701      0.29601655
       1772.9300       7.6650291      0.29587123
       1773.6600       7.6314681      0.29572596
       1774.4000       7.5852855      0.29557875
       1775.1300       7.5391029      0.29543359
       1775.8700       7.7718531      0.29528648
       1776.6000       8.0046133      0.29514142
       1777.3300       8.1306992      0.29499640
       1778.0700       8.2567751      0.29484946
       1778.8000       7.9946079      0.29470455
       1779.5300       7.7324107      0.29455969
       1780.2700       7.3957023      0.29441289
       1781.0000       7.0589739      0.29426814
       1781.7300       6.9250694      0.29412343
       1782.4700       6.7911849      0.29397679
       1783.2000       6.7311525      0.29383219
       1783.9300       6.6711301      0.29368764
       1784.6700       6.5552993      0.29354115
       1785.4000       6.4394684      0.29339670
       1786.1400       6.4299722      0.29325033
       1786.8700       6.4204761      0.29310598
       1787.6000       6.6150121      0.29296168
       1788.3400       6.8095680      0.29281546
       1789.0700       6.6920895      0.29267126
       1789.8000       6.5745911      0.29252712
       1790.5400       5.7207377      0.29238105
       1791.2700       4.8668244      0.29223701
       1792.0000       3.9128273      0.29209302
       1792.7400       2.9588201      0.29194711
       1793.4700       2.5830787      0.29180322
       1794.2000       2.2073772      0.29165938
       1794.9400       2.1929882      0.29151362
       1795.6700       2.1786192      0.29136989
       1796.4000       2.1888643      0.29122620
       1797.1400       2.1990993      0.29108060
       1797.8700       2.1677052      0.29093701
       1798.6100       2.1363010      0.29079152
       1799.3400       2.0306852      0.29064803
       1800.0700       1.9250594      0.29050460
       1800.8100       1.9322988      0.29035926
       1801.5400       1.9395582      0.29021593
       1802.2700       2.2663411      0.29007265
       1803.0100       2.5931540      0.28992746
       1803.7400       2.7412578      0.28978429
       1804.4700       2.8893416      0.28964116
       1805.2100       2.2893675      0.28949613
       1805.9400       1.6893336      0.28935310
       1806.6700      0.96456773      0.28921013
       1807.4100      0.23979290      0.28906525
       1808.1400      0.24230224      0.28892238
       1808.8800      0.24487848      0.28877760
       1809.6100      0.82155353      0.28863483
       1810.3400       1.3982785      0.28849211
       1811.0800       2.1144529      0.28834749
       1811.8100       2.8306273      0.28820487
       1812.5400       3.3323448      0.28806231
       1813.2800       3.8340323      0.28791784
       1814.0100       3.7979450      0.28777537
       1814.7400       3.7618078      0.28763296
       1815.4800       3.3831806      0.28748864
       1816.2100       3.0045234      0.28734633
       1816.9400       2.6774809      0.28720407
       1817.6800       2.3504483      0.28705991
       1818.4100       2.1337947      0.28691775
       1819.1400       1.9171410      0.28677564
       1819.8800       1.7513530      0.28663163
       1820.6100       1.5855751      0.28648962
       1821.3500       1.4383001      0.28634572
       1822.0800       1.2910351      0.28620381
       1822.8100       1.1124758      0.28606196
       1823.5500      0.93392247      0.28591821
       1824.2800      0.82811196      0.28577645
       1825.0100      0.72230943      0.28563475
       1825.7500      0.87102131      0.28549115
       1826.4800       1.0197611      0.28534955
       1827.2100       1.2023446      0.28520799
       1827.9500       1.3849380      0.28506455
       1828.6800       1.1917301      0.28492310
       1829.4100      0.99848621      0.28478170
       1830.1500      0.51570407      0.28463841
       1830.8800     0.032890080      0.28449711
       1831.6200     -0.39611767      0.28435393
       1832.3500     -0.82511933      0.28421273
       1833.0800      -1.0186628      0.28407158
       1833.8200      -1.2121902      0.28392854
       1834.5500      -1.0739121      0.28378750
       1835.2800     -0.93559503      0.28364650
       1836.0200     -0.60729635      0.28350362
       1836.7500     -0.27897769      0.28336272
       1837.4800    -0.070476904      0.28322188
       1838.2200      0.13800951      0.28307915
       1838.9500      0.13040860      0.28293841
       1839.6800      0.12278174      0.28279771
       1840.4200    -0.035714257      0.28265514
       1841.1500     -0.19422743      0.28251455
       1841.8800     -0.43476025      0.28237400
       1842.6200     -0.67530206      0.28223158
       1843.3500     -0.92917241      0.28209114
       1844.0900      -1.1830428      0.28194883
       1844.8200      -1.3139317      0.28180848
       1845.5500      -1.4448006      0.28166819
       1846.2900      -1.2573842      0.28152603
       1847.0200      -1.0699279      0.28138584
       1847.7500     -0.67193098      0.28124570
       1848.4900     -0.27391209      0.28110369
       1849.2200    -0.057527011      0.28096365
       1849.9500      0.15883610      0.28082365
       1850.6900      0.10941825      0.28068180
       1851.4200     0.059968446      0.28054191
       1852.1500    -0.026425519      0.28040207
       1852.8900     -0.11282428      0.28026036
       1853.6200     -0.14746870      0.28012063
       1854.3600     -0.18210712      0.27997902
       1855.0900     -0.22342081      0.27983938
       1855.8200     -0.26473549      0.27969980
       1856.5600     -0.28781279      0.27955835
       1857.2900     -0.31088810      0.27941886
       1858.0200     -0.19927306      0.27927942
       1858.7600    -0.087641843      0.27913812
       1859.4900      0.13721766      0.27899879
       1860.2200      0.36209235      0.27885950
       1860.9600      0.48773491      0.27871836
       1861.6900      0.61336549      0.27857917
       1862.4200      0.62857328      0.27844003
       1863.1600      0.64376710      0.27829904
       1863.8900      0.84534180      0.27816000
       1864.6200       1.0469415      0.27802102
       1865.3600       1.4430132      0.27788018
       1866.0900       1.8391149      0.27774129
       1866.8300       2.0025163      0.27760055
       1867.5600       2.1658778      0.27746177
       1868.2900       1.8988277      0.27732303
       1869.0300       1.6317177      0.27718245
       1869.7600       1.0860743      0.27704381
       1870.4900      0.54039303      0.27690522
       1871.2300    -0.078423002      0.27676479
       1871.9600     -0.69724902      0.27662630
       1872.6900      -1.0697482      0.27648787
       1873.4300      -1.4422044      0.27634759
       1874.1600      -1.4347153      0.27620925
       1874.8900      -1.4271663      0.27607096
       1875.6300      -1.3148403      0.27593084
       1876.3600      -1.2024944      0.27579265
       1877.1000      -1.1430511      0.27565262
       1877.8300      -1.0836079      0.27551454
       1878.5600     -0.93612026      0.27537650
       1879.3000     -0.78861562      0.27523662
       1880.0300     -0.48974397      0.27509869
       1880.7600     -0.19085036      0.27496080
       1881.5000      0.16630320      0.27482108
       1882.2300      0.52346574      0.27468329
       1882.9600      0.84561241      0.27454555
       1883.7000       1.1677551      0.27440598
       1884.4300       1.3538534      0.27426834
       1885.1600       1.5399317      0.27413075
       1885.9000       1.5320133      0.27399133
       1886.6300       1.5240649      0.27385385
       1887.3600       1.3787670      0.27371641
       1888.1000       1.2334492      0.27357714
       1888.8300       1.0211591      0.27343980
       1889.5700      0.80886606      0.27330063
       1890.3000      0.58201027      0.27316339
       1891.0300      0.35515248      0.27302620
       1891.7700      0.17507439      0.27288719
       1892.5000   -0.0049969544      0.27275010
       1893.2300    -0.038571086      0.27261306
       1893.9700    -0.072122901      0.27247419
       1894.7000     0.081388573      0.27233725
       1895.4300      0.23492900      0.27220036
       1896.1700      0.42585825      0.27206165
       1896.9000      0.61679248      0.27192485
       1897.6300      0.70431770      0.27178811
       1898.3700      0.79182693      0.27164955
       1899.1000      0.75109740      0.27151291
       1899.8400      0.71034889      0.27137444
       1900.5700      0.54756855      0.27123790
       1901.3000      0.38476924      0.27110141
       1902.0400      0.15882312      0.27096310
       1902.7700    -0.067132287      0.27082670
       1903.5000     -0.27772652      0.27069036
       1904.2400     -0.48831806      0.27055220
       1904.9700     -0.58952230      0.27041595
       1905.7000     -0.69070757      0.27027976
       1906.4400     -0.61025702      0.27014175
       1907.1700     -0.52977653      0.27000565
       1907.9000     -0.25796637      0.26986960
       1908.6400     0.013873844      0.26973174
       1909.3700      0.44137359      0.26959580
       1910.1000      0.86889841      0.26945990
       1910.8400       1.2540790      0.26932219
       1911.5700       1.6392467      0.26918639
       1912.3100       1.7933218      0.26904878
       1913.0400       1.9473569      0.26891308
       1913.7700       1.9186288      0.26877743
       1914.5100       1.8898808      0.26863997
       1915.2400       1.7766661      0.26850442
       1915.9700       1.6634414      0.26836892
       1916.7100       1.5200907      0.26823161
       1917.4400       1.3767400      0.26809621
       1918.1700       1.2511633      0.26796086
       1918.9100       1.1255767      0.26782370
       1919.6400       1.1013620      0.26768844
       1920.3700       1.0771574      0.26755324
       1921.1100       1.2159347      0.26741623
       1921.8400       1.3547321      0.26728112
       1922.5800       1.4442015      0.26714422
       1923.3100       1.5336609      0.26700921
       1924.0400       1.3302179      0.26687425
       1924.7800       1.1267350      0.26673749
       1925.5100      0.74138957      0.26660263
       1926.2400      0.35601522      0.26646782
       1926.9800   -0.0091003435      0.26633122
       1927.7100     -0.37421165      0.26619651
       1928.4400     -0.58149801      0.26606184
       1929.1800     -0.78875642      0.26592539
       1929.9100     -0.73257344      0.26579082
       1930.6400     -0.67634354      0.26565631
       1931.3800     -0.44240109      0.26552000
       1932.1100     -0.20842670      0.26538558
       1932.8400     0.045073293      0.26525122
       1933.5800      0.29857708      0.26511506
       1934.3100      0.49055878      0.26498079
       1935.0500      0.68252851      0.26484473
       1935.7800      0.76523176      0.26471056
       1936.5100      0.84791504      0.26457644
       1937.2500      0.80368662      0.26444054
       1937.9800      0.75943622      0.26430651
       1938.7100      0.59328580      0.26417254
       1939.4500      0.42711242      0.26403678
       1940.1800      0.23094682      0.26390291
       1940.9100     0.034775927      0.26376908
       1941.6500    -0.061987299      0.26363347
       1942.3800     -0.15873225      0.26349974
       1943.1100     -0.19279352      0.26336607
       1943.8500     -0.22684281      0.26323061
       1944.5800     -0.31254468      0.26309703
       1945.3100     -0.39825555      0.26296350
       1946.0500     -0.50095660      0.26282818
       1946.7800     -0.60366165      0.26269475
       1947.5200     -0.62228247      0.26255954
       1948.2500     -0.64088830      0.26242621
       1948.9800     -0.55335410      0.26229292
       1949.7200     -0.46579993      0.26215786
       1950.4500     -0.29262776      0.26202467
       1951.1800     -0.11943962      0.26189153
       1951.9200     0.092945300      0.26175662
       1952.6500      0.30533721      0.26162358
       1953.3800      0.49836339      0.26149059
       1954.1200      0.69138458      0.26135583
       1954.8500      0.79626246      0.26122293
       1955.5800      0.90112336      0.26109009
       1956.3200      0.83894414      0.26095547
       1957.0500      0.77673197      0.26082273
       1957.7900      0.63510974      0.26068821
       1958.5200      0.49347053      0.26055556
       1959.2500      0.48489705      0.26042296
       1959.9900      0.47634953      0.26028860
       1960.7200      0.58533641      0.26015609
       1961.4500      0.69434625      0.26002364
       1962.1900      0.72566453      0.25988942
       1962.9200      0.75696783      0.25975707
       1963.6500      0.68073712      0.25962476
       1964.3900      0.60448545      0.25949069
       1965.1200      0.53005412      0.25935848
       1965.8500      0.45562379      0.25922632
       1966.5900      0.38826513      0.25909240
       1967.3200      0.32090748      0.25896034
       1968.0600      0.17366844      0.25882652
       1968.7900     0.026414135      0.25869455
       1969.5200     -0.15647255      0.25856264
       1970.2600     -0.33936652      0.25842896
       1970.9900     -0.39137559      0.25829715
       1971.7200     -0.44335870      0.25816538
       1972.4600     -0.32066084      0.25803185
       1973.1900     -0.19792703      0.25790018
       1973.9200     0.018642482      0.25776855
       1974.6600      0.23523056      0.25763518
       1975.3900      0.45783556      0.25750365
       1976.1200      0.68044056      0.25737217
       1976.8600      0.80554191      0.25723895
       1977.5900      0.93062229      0.25710757
       1978.3200      0.94015437      0.25697623
       1979.0600      0.94966249      0.25684315
       1979.7900      0.94297625      0.25671192
       1980.5300      0.93628602      0.25657894
       1981.2600      0.97007269      0.25644780
       1981.9900       1.0038644      0.25631671
       1982.7300       1.0801230      0.25618388
       1983.4600       1.1563917      0.25605289
       1984.1900       1.2342380      0.25592195
       1984.9300       1.3120943      0.25578926
       1985.6600       1.2691470      0.25565842
       1986.3900       1.2261698      0.25552762
       1987.1300       1.0426078      0.25539508
       1987.8600      0.85900485      0.25526438
       1988.5900      0.69365426      0.25513373
       1989.3300      0.52830767      0.25500134
       1990.0600      0.46601562      0.25487079
       1990.7900      0.40374653      0.25474028
       1991.5300      0.39252991      0.25460804
       1992.2600      0.38132327      0.25447763
       1993.0000      0.38095880      0.25434549
       1993.7300      0.38059533      0.25421517
       1994.4600      0.37065684      0.25408491
       1995.2000      0.36071635      0.25395291
       1995.9300      0.33028379      0.25382275
       1996.6600      0.29984722      0.25369263
       1997.4000      0.26978112      0.25356078
       1998.1300      0.23971601      0.25343076
       1998.8600      0.22570447      0.25330079
       1999.6000      0.21169792      0.25316909
       2000.3300      0.21345036      0.25303921
       2001.0600      0.21520680      0.25290939
       2001.8000      0.22769656      0.25277783
       2002.5300      0.24018932      0.25264810
       2003.2700      0.24152138      0.25251664
       2004.0000      0.24285044      0.25238701
       2004.7300      0.22520520      0.25225742
       2005.4700      0.20755597      0.25212611
       2006.2000      0.20871827      0.25199663
       2006.9300      0.20988557      0.25186719
       2007.6700      0.25272302      0.25173602
       2008.4000      0.29557147      0.25160668
       2009.1300      0.35163861      0.25147738
       2009.8700      0.40770974      0.25134637
       2010.6000      0.45146786      0.25121717
       2011.3300      0.49522497      0.25108802
       2012.0700      0.52150860      0.25095715
       2012.8000      0.54778823      0.25082810
       2013.5400      0.55506361      0.25069732
       2014.2700      0.56233499      0.25056837
       2015.0000      0.55060212      0.25043946
       2015.7400      0.53886526      0.25030883
       2016.4700      0.51763525      0.25018002
       2017.2000      0.49640225      0.25005126
       2017.9400      0.52283266      0.24992078
       2018.6700      0.54927406      0.24979211
       2019.4000      0.65618098      0.24966349
       2020.1400      0.76310686      0.24953316
       2020.8700      0.84013341      0.24940463
       2021.6000      0.91715296      0.24927616
       2022.3400      0.87508837      0.24914597
       2023.0700      0.83299483      0.24901759
       2023.8000      0.78455455      0.24888926
       2024.5400      0.73611228      0.24875922
       2025.2700      0.78561800      0.24863099
       2026.0100      0.83514768      0.24850105
       2026.7400      0.90058914      0.24837291
       2027.4700      0.96603559      0.24824482
       2028.2100      0.95980668      0.24811502
       2028.9400      0.95355880      0.24798703
       2029.6700      0.87576638      0.24785908
