# data from http://adsabs.harvard.edu/abs/2007ApJ...666.1093Q
# original filename = 2006bp_20060417_4079_10772_00.dat
# via WISEREP
# de-redshifted assuming z=   0.00329200
# flux divided by   2.33235e-15
# observation JD =        2453842.5
# phase in rest-frame days relative to JD =        2453834.2
# type is SNII
# phase is       8.30000
# WARNING: fake error spectrum!

       4066.1300       2.2132000     0.012232685
       4067.7800       2.3762000     0.012231632
       4069.4300       2.5392000     0.012230571
       4071.0800       2.6366000     0.012229502
       4072.7300       2.5895700     0.012228424
       4074.3800       2.5425300     0.012227338
       4076.0300       2.4820800     0.012226243
       4077.6800       2.4135600     0.012225140
       4079.3200       2.3450400     0.012224036
       4080.9700       2.2698800     0.012222917
       4082.6200       2.1942800     0.012221789
       4084.2700       2.1459900     0.012220653
       4085.9200       2.1798400     0.012219509
       4087.5700       2.2136900     0.012218357
       4089.2200       2.2257200     0.012217197
       4090.8700       2.2207400     0.012216028
       4092.5200       2.2157600     0.012214851
       4094.1700       2.1995500     0.012213666
       4095.8200       2.1817300     0.012212472
       4097.4700       2.1697400     0.012211271
       4099.1100       2.1831500     0.012210069
       4100.7600       2.1965700     0.012208851
       4102.4100       2.2054500     0.012207625
       4104.0600       2.2097900     0.012206391
       4105.7100       2.2141200     0.012205148
       4107.3600       2.1766800     0.012203898
       4109.0100       2.1295400     0.012202640
       4110.6600       2.0863400     0.012201373
       4112.3100       2.0711100     0.012200098
       4113.9600       2.0558800     0.012198815
       4115.6100       2.0500300     0.012197524
       4117.2600       2.0563100     0.012196225
       4118.9100       2.0625900     0.012194918
       4120.5500       2.0712300     0.012193611
       4122.2000       2.0806700     0.012192288
       4123.8500       2.0893300     0.012190957
       4125.5000       2.0861600     0.012189618
       4127.1500       2.0829800     0.012188270
       4128.8000       2.0748600     0.012186915
       4130.4500       2.0584300     0.012185552
       4132.1000       2.0420000     0.012184181
       4133.7500       2.0333600     0.012182801
       4135.4000       2.0283000     0.012181414
       4137.0500       2.0232300     0.012180019
       4138.6900       2.0082400     0.012178624
       4140.3400       1.9932200     0.012177213
       4141.9900       1.9873500     0.012175794
       4143.6400       2.0017900     0.012174367
       4145.2900       2.0162200     0.012172932
       4146.9400       2.0057300     0.012171489
       4148.5900       1.9801500     0.012170038
       4150.2400       1.9545700     0.012168579
       4151.8900       1.9582500     0.012167113
       4153.5400       1.9639600     0.012165638
       4155.1900       1.9743700     0.012164156
       4156.8400       1.9990400     0.012162665
       4158.4900       2.0237200     0.012161167
       4160.1300       2.0400900     0.012159670
       4161.7800       2.0499500     0.012158157
       4163.4300       2.0598000     0.012156635
       4165.0800       2.0713400     0.012155106
       4166.7300       2.0831200     0.012153568
       4168.3800       2.0942300     0.012152023
       4170.0300       2.1024200     0.012150470
       4171.6800       2.1106000     0.012148910
       4173.3300       2.1153300     0.012147341
       4174.9800       2.1165600     0.012145765
       4176.6300       2.1178000     0.012144181
       4178.2700       2.1421800     0.012142599
       4179.9200       2.1720200     0.012140999
       4181.5700       2.1980800     0.012139392
       4183.2200       2.1969900     0.012137777
       4184.8700       2.1958900     0.012136154
       4186.5200       2.1924900     0.012134524
       4188.1700       2.1860600     0.012132885
       4189.8200       2.1796300     0.012131240
       4191.4700       2.1693700     0.012129586
       4193.1200       2.1578100     0.012127925
       4194.7700       2.1481000     0.012126256
       4196.4200       2.1680000     0.012124579
       4198.0600       2.1878900     0.012122905
       4199.7100       2.1976200     0.012121213
       4201.3600       2.1901400     0.012119514
       4203.0100       2.1826700     0.012117807
       4204.6600       2.1811300     0.012116092
       4206.3100       2.1823400     0.012114370
       4207.9600       2.1835500     0.012112640
       4209.6100       2.1898700     0.012110902
       4211.2600       2.1962000     0.012109157
       4212.9100       2.1983100     0.012107404
       4214.5600       2.1909200     0.012105644
       4216.2100       2.1835400     0.012103876
       4217.8500       2.1893000     0.012102111
       4219.5000       2.2030800     0.012100328
       4221.1500       2.2168700     0.012098538
       4222.8000       2.2262400     0.012096740
       4224.4500       2.2353100     0.012094934
       4226.1000       2.2358400     0.012093121
       4227.7500       2.2102100     0.012091301
       4229.4000       2.1845800     0.012089473
       4231.0500       2.1850700     0.012087637
       4232.7000       2.2062300     0.012085794
       4234.3500       2.2273900     0.012083944
       4236.0000       2.2192900     0.012082086
       4237.6500       2.2068300     0.012080220
       4239.2900       2.1953800     0.012078359
       4240.9400       2.1883800     0.012076479
       4242.5900       2.1813900     0.012074591
       4244.2400       2.1866000     0.012072696
       4245.8900       2.2042400     0.012070794
       4247.5400       2.2218900     0.012068884
       4249.1900       2.2258900     0.012066966
       4250.8400       2.2266500     0.012065042
       4252.4900       2.2267700     0.012063110
       4254.1400       2.2222100     0.012061170
       4255.7900       2.2176400     0.012059224
       4257.4400       2.2109400     0.012057269
       4259.0800       2.2014200     0.012055320
       4260.7300       2.1919100     0.012053351
       4262.3800       2.1915100     0.012051375
       4264.0300       2.1942400     0.012049392
       4265.6800       2.1959300     0.012047401
       4267.3300       2.1804700     0.012045403
       4268.9800       2.1650100     0.012043398
       4270.6300       2.1553300     0.012041385
       4272.2800       2.1555300     0.012039366
       4273.9300       2.1557300     0.012037339
       4275.5800       2.1618600     0.012035304
       4277.2300       2.1707400     0.012033263
       4278.8700       2.1796300     0.012031226
       4280.5200       2.1890500     0.012029170
       4282.1700       2.1984600     0.012027107
       4283.8200       2.2034200     0.012025037
       4285.4700       2.1982900     0.012022959
       4287.1200       2.1931700     0.012020874
       4288.7700       2.1820900     0.012018782
       4290.4200       2.1673400     0.012016683
       4292.0700       2.1526000     0.012014577
       4293.7200       2.1518000     0.012012463
       4295.3700       2.1520200     0.012010342
       4297.0200       2.1578600     0.012008215
       4298.6600       2.1811200     0.012006093
       4300.3100       2.2043800     0.012003951
       4301.9600       2.2146700     0.012001802
       4303.6100       2.2146200     0.011999645
       4305.2600       2.2145600     0.011997482
       4306.9100       2.2074600     0.011995312
       4308.5600       2.1992900     0.011993134
       4310.2100       2.1938300     0.011990949
       4311.8600       2.2005800     0.011988758
       4313.5100       2.2073300     0.011986559
       4315.1600       2.2095500     0.011984353
       4316.8100       2.2071400     0.011982141
       4318.4500       2.2047300     0.011979934
       4320.1000       2.2048400     0.011977707
       4321.7500       2.2055500     0.011975474
       4323.4000       2.2049100     0.011973233
       4325.0500       2.1943600     0.011970985
       4326.7000       2.1836300     0.011968730
       4328.3500       2.1814100     0.011966468
       4330.0000       2.1901400     0.011964200
       4331.6500       2.1973300     0.011961924
       4333.3000       2.1982100     0.011959641
       4334.9500       2.1950100     0.011957352
       4336.6000       2.1900200     0.011955055
       4338.2400       2.1920200     0.011952766
       4339.8900       2.1959500     0.011950455
       4341.5400       2.1959900     0.011948138
       4343.1900       2.1874900     0.011945814
       4344.8400       2.1844200     0.011943483
       4346.4900       2.1862400     0.011941145
       4348.1400       2.1893900     0.011938800
       4349.7900       2.1909500     0.011936448
       4351.4400       2.1972700     0.011934090
       4353.0900       2.2011100     0.011931725
       4354.7400       2.2001500     0.011929352
       4356.3900       2.1914100     0.011926973
       4358.0300       2.1820600     0.011924602
       4359.6800       2.1799700     0.011922209
       4361.3300       2.1824500     0.011919810
       4362.9800       2.1848700     0.011917404
       4364.6300       2.1951400     0.011914990
       4366.2800       2.2060000     0.011912571
       4367.9300       2.2117200     0.011910144
       4369.5800       2.2013500     0.011907711
       4371.2300       2.1909700     0.011905271
       4372.8800       2.1845700     0.011902824
       4374.5300       2.1813500     0.011900370
       4376.1800       2.1781300     0.011897910
       4377.8200       2.1790200     0.011895458
       4379.4700       2.1805300     0.011892984
       4381.1200       2.1814300     0.011890504
       4382.7700       2.1795600     0.011888017
       4384.4200       2.1776800     0.011885523
       4386.0700       2.1740100     0.011883022
       4387.7200       2.1684900     0.011880515
       4389.3700       2.1629600     0.011878001
       4391.0200       2.1587400     0.011875481
       4392.6700       2.1548400     0.011872954
       4394.3200       2.1508000     0.011870420
       4395.9700       2.1457400     0.011867880
       4397.6200       2.1406800     0.011865333
       4399.2600       2.1406100     0.011862795
       4400.9100       2.1471700     0.011860235
       4402.5600       2.1537400     0.011857668
       4404.2100       2.1511000     0.011855095
       4405.8600       2.1452600     0.011852515
       4407.5100       2.1390300     0.011849928
       4409.1600       2.1259900     0.011847335
       4410.8100       2.1129600     0.011844736
       4412.4600       2.1059600     0.011842130
       4414.1100       2.1094400     0.011839517
       4415.7600       2.1129100     0.011836898
       4417.4000       2.1191500     0.011834288
       4419.0500       2.1266900     0.011831656
       4420.7000       2.1342400     0.011829017
       4422.3500       2.1346800     0.011826372
       4424.0000       2.1350500     0.011823721
       4425.6500       2.1307100     0.011821063
       4427.3000       2.1155200     0.011818398
       4428.9500       2.1003400     0.011815727
       4430.6000       2.0920800     0.011813050
       4432.2500       2.0881300     0.011810366
       4433.9000       2.0841900     0.011807676
       4435.5500       2.0898500     0.011804979
       4437.1900       2.0962600     0.011802292
       4438.8400       2.1016400     0.011799583
       4440.4900       2.1037800     0.011796867
       4442.1400       2.1059100     0.011794145
       4443.7900       2.1018200     0.011791416
       4445.4400       2.0926700     0.011788681
       4447.0900       2.0835200     0.011785940
       4448.7400       2.0818400     0.011783192
       4450.3900       2.0813400     0.011780438
       4452.0400       2.0822200     0.011777678
       4453.6900       2.0895400     0.011774911
       4455.3400       2.0968500     0.011772138
       4456.9800       2.0952500     0.011769376
       4458.6300       2.0843500     0.011766590
       4460.2800       2.0734600     0.011763798
       4461.9300       2.0638000     0.011761000
       4463.5800       2.0544400     0.011758196
       4465.2300       2.0446600     0.011755385
       4466.8800       2.0315800     0.011752568
       4468.5300       2.0185100     0.011749745
       4470.1800       2.0112800     0.011746916
       4471.8300       2.0119100     0.011744080
       4473.4800       2.0125400     0.011741238
       4475.1300       2.0156600     0.011738390
       4476.7700       2.0196500     0.011735553
       4478.4200       2.0232600     0.011732693
       4480.0700       2.0196000     0.011729826
       4481.7200       2.0159500     0.011726953
       4483.3700       2.0136300     0.011724074
       4485.0200       2.0136300     0.011721189
       4486.6700       2.0136400     0.011718298
       4488.3200       2.0152500     0.011715401
       4489.9700       2.0176400     0.011712497
       4491.6200       2.0200200     0.011709587
       4493.2700       2.0182000     0.011706672
       4494.9200       2.0163300     0.011703750
       4496.5600       2.0147400     0.011700839
       4498.2100       2.0138000     0.011697905
       4499.8600       2.0128500     0.011694965
       4501.5100       2.0101600     0.011692019
       4503.1600       2.0063700     0.011689067
       4504.8100       2.0025800     0.011686108
       4506.4600       2.0047000     0.011683144
       4508.1100       2.0073000     0.011680174
       4509.7600       2.0102300     0.011677197
       4511.4100       2.0142100     0.011674215
       4513.0600       2.0182000     0.011671226
       4514.7100       2.0177500     0.011668232
       4516.3500       2.0136800     0.011665250
       4518.0000       2.0096100     0.011662243
       4519.6500       2.0011900     0.011659231
       4521.3000       1.9920700     0.011656212
       4522.9500       1.9846200     0.011653188
       4524.6000       1.9849600     0.011650158
       4526.2500       1.9853000     0.011647121
       4527.9000       1.9838900     0.011644079
       4529.5500       1.9806500     0.011641031
       4531.2000       1.9774100     0.011637977
       4532.8500       1.9727700     0.011634917
       4534.5000       1.9677800     0.011631851
       4536.1500       1.9645700     0.011628780
       4537.7900       1.9754600     0.011625721
       4539.4400       1.9863500     0.011622637
       4541.0900       1.9911100     0.011619548
       4542.7400       1.9876000     0.011616453
       4544.3900       1.9840900     0.011613352
       4546.0400       1.9832800     0.011610245
       4547.6900       1.9834300     0.011607132
       4549.3400       1.9836500     0.011604014
       4550.9900       1.9852000     0.011600889
       4552.6400       1.9867500     0.011597759
       4554.2900       1.9874900     0.011594623
       4555.9400       1.9868000     0.011591482
       4557.5800       1.9861100     0.011588353
       4559.2300       1.9836100     0.011585200
       4560.8800       1.9802300     0.011582041
       4562.5300       1.9768400     0.011578876
       4564.1800       1.9728200     0.011575706
       4565.8300       1.9687900     0.011572530
       4567.4800       1.9666900     0.011569348
       4569.1300       1.9691200     0.011566160
       4570.7800       1.9715600     0.011562966
       4572.4300       1.9713300     0.011559767
       4574.0800       1.9694100     0.011556563
       4575.7300       1.9675000     0.011553352
       4577.3700       1.9599600     0.011550155
       4579.0200       1.9519600     0.011546934
       4580.6700       1.9452000     0.011543706
       4582.3200       1.9424500     0.011540473
       4583.9700       1.9397100     0.011537234
       4585.6200       1.9371500     0.011533990
       4587.2700       1.9347500     0.011530740
       4588.9200       1.9323500     0.011527484
       4590.5700       1.9246000     0.011524223
       4592.2200       1.9159800     0.011520956
       4593.8700       1.9079600     0.011517684
       4595.5200       1.9027300     0.011514406
       4597.1600       1.8975000     0.011511142
       4598.8100       1.8994800     0.011507853
       4600.4600       1.9090900     0.011504558
       4602.1100       1.9187100     0.011501258
       4603.7600       1.9140900     0.011497952
       4605.4100       1.9058800     0.011494641
       4607.0600       1.8973700     0.011491324
       4608.7100       1.8864200     0.011488002
       4610.3600       1.8754700     0.011484674
       4612.0100       1.8658900     0.011481341
       4613.6600       1.8581700     0.011478002
       4615.3100       1.8504500     0.011474658
       4616.9500       1.8433900     0.011471328
       4618.6000       1.8365700     0.011467973
       4620.2500       1.8297100     0.011464612
       4621.9000       1.8221400     0.011461246
       4623.5500       1.8145700     0.011457875
       4625.2000       1.8081200     0.011454498
       4626.8500       1.8036400     0.011451115
       4628.5000       1.7991600     0.011447728
       4630.1500       1.7917600     0.011444335
       4631.8000       1.7829500     0.011440936
       4633.4500       1.7741400     0.011437532
       4635.1000       1.7734400     0.011434123
       4636.7400       1.7728700     0.011430729
       4638.3900       1.7695800     0.011427309
       4640.0400       1.7598800     0.011423883
       4641.6900       1.7501800     0.011420453
       4643.3400       1.7477000     0.011417016
       4644.9900       1.7498500     0.011413575
       4646.6400       1.7520000     0.011410128
       4648.2900       1.7522000     0.011406676
       4649.9400       1.7522400     0.011403219
       4651.5900       1.7523800     0.011399757
       4653.2400       1.7528300     0.011396289
       4654.8900       1.7532900     0.011392816
       4656.5300       1.7521600     0.011389358
       4658.1800       1.7497100     0.011385875
       4659.8300       1.7472600     0.011382386
       4661.4800       1.7477800     0.011378892
       4663.1300       1.7487900     0.011375392
       4664.7800       1.7501300     0.011371888
       4666.4300       1.7530700     0.011368378
       4668.0800       1.7560200     0.011364863
       4669.7300       1.7588700     0.011361343
       4671.3800       1.7616100     0.011357817
       4673.0300       1.7643600     0.011354287
       4674.6800       1.7723900     0.011350751
       4676.3200       1.7817800     0.011347232
       4677.9700       1.7902100     0.011343686
       4679.6200       1.7907900     0.011340135
       4681.2700       1.7913700     0.011336579
       4682.9200       1.7915600     0.011333017
       4684.5700       1.7912100     0.011329451
       4686.2200       1.7908600     0.011325879
       4687.8700       1.8031900     0.011322302
       4689.5200       1.8201100     0.011318721
       4691.1700       1.8368500     0.011315134
       4692.8200       1.8497800     0.011311542
       4694.4700       1.8627100     0.011307945
       4696.1100       1.8734900     0.011304364
       4697.7600       1.8804200     0.011300757
       4699.4100       1.8873400     0.011297145
       4701.0600       1.8960000     0.011293528
       4702.7100       1.9055000     0.011289906
       4704.3600       1.9150100     0.011286279
       4706.0100       1.9270000     0.011282646
       4707.6600       1.9390300     0.011279009
       4709.3100       1.9499300     0.011275367
       4710.9600       1.9581400     0.011271720
       4712.6100       1.9663400     0.011268068
       4714.2600       1.9722700     0.011264411
       4715.9000       1.9767200     0.011260771
       4717.5500       1.9811700     0.011257104
       4719.2000       1.9902700     0.011253432
       4720.8500       1.9997700     0.011249755
       4722.5000       2.0064900     0.011246073
       4724.1500       2.0040400     0.011242387
