# starting wavelength =        3561.1000
# ending wavelength =        8356.7700
# O2 telluric scale =       0.68399411
# O2 telluric shift =        1.3516396
# H2O telluric scale =        0
# H2O telluric shift =        0
      3562.36       4.3518045     0.028731509
      3565.92       4.3709899     0.018777865
      3569.49       4.3811163     0.014078471
      3573.06       4.3942961     0.012033744
      3576.64       4.3725653     0.010759157
      3580.21       4.3563956     0.010028124
      3583.79       4.3476371    0.0095514767
      3587.38       4.3126292    0.0094493747
      3590.96       4.2825504    0.0094382205
      3594.55       4.2589272    0.0094280495
      3598.15       4.2358825    0.0094142368
      3601.75       4.2329961    0.0094007015
      3605.35       4.2327377    0.0093881832
      3608.96       4.2260500    0.0093765972
      3612.56       4.2164274    0.0093659523
      3616.18       4.2140831    0.0093551735
      3619.79       4.2052376    0.0092561535
      3623.41       4.1881126    0.0092431877
      3627.04       4.1796975    0.0092311922
      3630.66       4.1540984    0.0093053332
      3634.29       4.1243471    0.0092931475
      3637.93       4.0896768    0.0091975823
      3641.57       4.0458965    0.0091844157
      3645.21       3.9981161    0.0091723394
      3648.86       3.9465860    0.0091607318
      3652.50       3.8753781    0.0092323879
      3656.16       3.8020182    0.0091385365
      3659.81       3.7346570    0.0091251886
      3663.47       3.6727283    0.0091130523
      3667.14       3.6206248    0.0091007179
      3670.80       3.5734230    0.0090095423
      3674.48       3.5335235    0.0090783679
      3678.15       3.4970268    0.0090652677
      3681.83       3.4623977    0.0090532915
      3685.51       3.4254005    0.0089622282
      3689.20       3.4006335    0.0089507019
      3692.88       3.3824353    0.0090175846
      3696.58       3.3765488    0.0090052965
      3700.27       3.3763875    0.0089150845
      3703.98       3.3802439    0.0089034051
      3707.68       3.3936944    0.0088931816
      3711.39       3.4127520    0.0088795683
      3715.10       3.4197445    0.0088685110
      3718.81       3.4264903    0.0088567966
      3722.53       3.4253783    0.0088464150
      3726.26       3.4155795    0.0088315874
      3729.98       3.4034099    0.0088203623
      3733.71       3.3891671    0.0088105876
      3737.45       3.3756720    0.0087189630
      3741.18       3.3669144    0.0087839827
      3744.93       3.3612099    0.0087733532
      3748.67       3.3631342    0.0086851227
      3752.42       3.3712097    0.0087489142
      3756.17       3.3800829    0.0087371905
      3759.93       3.3852298    0.0086491113
      3763.69       3.3934896    0.0086368250
      3767.45       3.4043742    0.0087024759
      3771.22       3.4089316    0.0086141875
      3774.99       3.4149271    0.0086010484
      3778.77       3.4190520    0.0086661669
      3782.54       3.4209283    0.0085796368
      3786.33       3.4275791    0.0085662924
      3790.11       3.4320300    0.0085574880
      3793.90       3.4358516    0.0085431346
      3797.70       3.4452787    0.0085308851
      3801.50       3.4656765    0.0085221540
      3805.30       3.4994297    0.0085075712
      3809.10       3.5554345    0.0084240864
      3812.91       3.6270069    0.0084857123
      3816.73       3.7153591    0.0084730625
      3820.54       3.8222130    0.0083898062
      3824.36       3.9416626    0.0084491315
      3828.19       4.0632623    0.0083657947
      3832.02       4.1714209    0.0083556765
      3835.85       4.2627845    0.0084137591
      3839.68       4.3030063    0.0083311437
      3843.52       4.3585583    0.0083902759
      3847.37       4.4152325    0.0083078680
      3851.22       4.4371906    0.0082981891
      3855.07       4.4062077    0.0082844055
      3858.92       4.3052750    0.0082732430
      3862.78       4.1518509    0.0081911698
      3866.64       4.0264932    0.0082501734
      3870.51       3.9464870    0.0081687268
      3874.38       3.8846664    0.0082259329
      3878.26       3.8443784    0.0081457391
      3882.13       3.8024905    0.0082030160
      3886.02       3.7800570    0.0081235649
      3889.90       3.7596805    0.0081099317
      3893.79       3.7476491    0.0081004741
      3897.69       3.7159562    0.0080870819
      3901.59       3.6346126    0.0080786264
      3905.49       3.5223281    0.0080640702
      3909.39       3.3862337    0.0080548861
      3913.30       3.2963204    0.0080407866
      3917.22       3.2605286    0.0080324742
      3921.13       3.2571157    0.0080180676
      3925.06       3.2653263    0.0080086672
      3928.98       3.2706970    0.0079944723
      3932.91       3.2782643    0.0079189307
      3936.84       3.2628875    0.0079718449
      3940.78       3.2291955    0.0078959998
      3944.72       3.2056600    0.0079482810
      3948.67       3.1766653    0.0078735948
      3952.61       3.1623440    0.0078613092
      3956.57       3.1653972    0.0078511087
      3960.52       3.1705012    0.0078379731
      3964.48       3.1960233    0.0078915069
      3968.45       3.2316552    0.0078153691
      3972.42       3.2609800    0.0078681044
      3976.39       3.2790423    0.0077925717
      3980.37       3.2894358    0.0077809341
      3984.35       3.2779636    0.0077707838
      3988.33       3.2637637    0.0077581815
      3992.32       3.2423725    0.0077483814
      3996.31       3.2017330    0.0077351319
      4000.31       3.1639937    0.0076606714
      4004.31       3.1430788    0.0077132339
      4008.31       3.1309788    0.0077006952
      4012.32       3.1298914    0.0076271850
      4016.33       3.1356335    0.0076782823
      4020.35       3.1442877    0.0076042046
      4024.37       3.1577437    0.0075941722
      4028.40       3.1729979    0.0075808814
      4032.42       3.1869960    0.0075702557
      4036.46       3.2050009    0.0076215652
      4040.50       3.2077587    0.0075471317
      4044.54       3.2010536    0.0075365722
      4048.58       3.1890496    0.0075246468
      4052.63       3.1825296    0.0075135808
      4056.68       3.1861098    0.0075031349
      4060.74       3.1910757    0.0074316547
      4064.80       3.1970815    0.0074792108
      4068.86       3.2041874    0.0074692604
      4072.93       3.2133502    0.0073982086
      4077.01       3.2251127    0.0074453137
      4081.08       3.2389540    0.0074349348
      4085.17       3.2520716    0.0073647934
      4089.25       3.2627098    0.0073532664
      4093.34       3.2725595    0.0074008313
      4097.43       3.2852146    0.0073312790
      4101.53       3.2920223    0.0073196538
      4105.63       3.2977090    0.0073667635
      4109.74       3.3030474    0.0072982829
      4113.85       3.3093385    0.0072860466
      4117.96       3.3097319    0.0072748119
      4122.08       3.3143793    0.0072656839
      4126.20       3.3182216    0.0072531270
      4130.33       3.3213343    0.0072412283
      4134.46       3.3216231    0.0071728101
      4138.59       3.3140603    0.0071621799
      4142.73       3.3040152    0.0072084932
      4146.88       3.2892108    0.0071966362
      4151.02       3.2671753    0.0071284870
      4155.18       3.2392980    0.0071176118
      4159.33       3.2135086    0.0071076592
      4163.49       3.1865244    0.0071521635
      4167.65       3.1585278    0.0070842110
      4171.82       3.1354240    0.0070731802
      4175.99       3.1143033    0.0070627990
      4180.17       3.0904026    0.0070525729
      4184.35       3.0665466    0.0069863360
      4188.54       3.0391709    0.0070288698
      4192.72       3.0101169    0.0070180069
      4196.92       2.9870951    0.0070072888
      4201.11       2.9655154    0.0069971014
      4205.31       2.9539500    0.0069316217
      4209.52       2.9450360    0.0069205000
      4213.73       2.9381629    0.0069627048
      4217.94       2.9359627    0.0069519328
      4222.16       2.9413407    0.0069412319
      4226.38       2.9432465    0.0068778905
      4230.61       2.9406242    0.0068663775
      4234.84       2.9373018    0.0068551529
      4239.08       2.9331295    0.0068437652
      4243.32       2.9320218    0.0068331156
      4247.56       2.9306709    0.0068223224
      4251.81       2.9277246    0.0067593905
      4256.06       2.9196250    0.0068017086
      4260.32       2.9096682    0.0067904960
      4264.58       2.8962087    0.0067791241
      4268.84       2.8826743    0.0067680219
      4273.11       2.8686509    0.0067568968
      4277.38       2.8536262    0.0067459169
      4281.66       2.8385396    0.0066832633
      4285.94       2.8258271    0.0066725898
      4290.23       2.8160221    0.0066617846
      4294.52       2.8137542    0.0066512316
      4298.81       2.8163209    0.0066405179
      4303.11       2.8199310    0.0066299829
      4307.42       2.8162022    0.0066191666
      4311.72       2.8206242    0.0066088709
      4316.04       2.8321174    0.0065983081
      4320.35       2.8430386    0.0065876800
      4324.67       2.8528906    0.0065769629
      4329.00       2.8544216    0.0065169887
      4333.33       2.8765283    0.0065062331
      4337.66       2.9027627    0.0064953802
      4342.00       2.9339349    0.0064844247
      4346.34       2.9687120    0.0064740685
      4350.69       2.9970175    0.0064634002
      4355.04       3.0092659    0.0064526896
      4359.39       3.0107549    0.0064419609
      4363.75       3.0052145    0.0064315091
      4368.12       2.9994304    0.0064209367
      4372.48       2.9897277    0.0064102355
      4376.86       2.9696526    0.0063998043
      4381.23       2.9535689    0.0063893723
      4385.61       2.9395425    0.0063789160
      4390.00       2.9243366    0.0063683226
      4394.39       2.9187493    0.0063579873
      4398.79       2.9112894    0.0063476741
      4403.18       2.8990816    0.0062892787
      4407.59       2.8818551    0.0062783097
      4412.00       2.8629819    0.0062679306
      4416.41       2.8502461    0.0062574871
      4420.82       2.8391707    0.0062469573
      4425.25       2.8382524    0.0062361392
      4429.67       2.8466901    0.0062260837
      4434.10       2.8591482    0.0062156414
      4438.54       2.8558160    0.0062053504
      4442.97       2.8292149    0.0061959583
      4447.42       2.8317439    0.0061853759
      4451.86       2.8436596    0.0061745384
      4456.32       2.8668958    0.0061635760
      4460.77       2.9054071    0.0061528679
      4465.24       2.9527269    0.0061426269
      4469.70       3.0045300    0.0061321955
      4474.17       3.0576395    0.0060774506
      4478.65       3.1047864    0.0060674415
      4483.12       3.1408420    0.0060577216
      4487.61       3.1538554    0.0060479553
      4492.09       3.1335786    0.0060801792
      4496.59       3.0806575    0.0060259832
      4501.08       3.0325809    0.0060158615
      4505.58       2.9794152    0.0060057181
      4510.09       2.9197923    0.0059956502
      4514.60       2.8665939    0.0059864360
      4519.12       2.8195204    0.0059318837
      4523.63       2.7716533    0.0059644115
      4528.16       2.7316629    0.0059541655
      4532.69       2.7032391    0.0059446678
      4537.22       2.6749723    0.0058915840
      4541.76       2.6499757    0.0058807080
      4546.30       2.6276604    0.0058705605
      4550.85       2.6049449    0.0059035121
      4555.40       2.5853515    0.0058514314
      4559.95       2.5666267    0.0058404157
      4564.51       2.5494502    0.0058303245
      4569.08       2.5320653    0.0058204400
      4573.65       2.5147701    0.0058110281
      4578.22       2.4917762    0.0058000385
      4582.80       2.4688206    0.0057900631
      4587.38       2.4481338    0.0057395361
      4591.97       2.4256461    0.0057703613
      4596.56       2.4061319    0.0057597973
      4601.16       2.3867973    0.0057095229
      4605.76       2.3690134    0.0056998585
      4610.37       2.3515777    0.0057299246
      4614.98       2.3350008    0.0057197461
      4619.59       2.3188525    0.0056699887
      4624.21       2.3064688    0.0056605553
      4628.84       2.2941257    0.0056495038
      4633.47       2.2789903    0.0056399265
      4638.10       2.2653968    0.0056308067
      4642.74       2.2487010    0.0055805120
      4647.38       2.2288698    0.0056100320
      4652.03       2.2039409    0.0056011163
      4656.68       2.1755321    0.0055513919
      4661.34       2.1447720    0.0055804257
      4666.00       2.1086875    0.0055715906
      4670.67       2.0691478    0.0055220064
      4675.33       2.0291715    0.0055511436
      4680.01       1.9921504    0.0055024758
      4684.69       1.9617657    0.0054928083
      4689.38       1.9344326    0.0054840099
      4694.07       1.9142058    0.0054730737
      4698.76       1.8997161    0.0054634456
      4703.46       1.8880258    0.0054544155
      4708.16       1.8728493    0.0054440418
      4712.87       1.8591175    0.0054351154
      4717.58       1.8395566    0.0054247819
      4722.30       1.8198630    0.0053783292
      4727.03       1.7977330    0.0054055132
      4731.75       1.7742154    0.0053585949
      4736.48       1.7496931    0.0053501544
      4741.22       1.7261744    0.0053765715
      4745.96       1.7073646    0.0053303193
      4750.71       1.6944685    0.0053571725
      4755.46       1.6852058    0.0053114141
      4760.22       1.6806868    0.0053379676
      4764.97       1.6799620    0.0052919224
      4769.74       1.6807877    0.0052840786
      4774.51       1.6842800    0.0052731445
      4779.29       1.6894912    0.0052645848
      4784.07       1.6977201    0.0052540198
      4788.85       1.7079252    0.0052092750
      4793.64       1.7154714    0.0052350464
      4798.43       1.7296841    0.0051900662
      4803.23       1.7397906    0.0052164123
      4808.03       1.7452590    0.0051716115
      4812.84       1.7520915    0.0051973251
      4817.66       1.7606998    0.0051526266
      4822.48       1.7708125    0.0051789841
      4827.30       1.7819511    0.0051339459
      4832.12       1.7885856    0.0051253136
      4836.96       1.7956664    0.0051154493
      4841.79       1.8023754    0.0051066398
      4846.63       1.8097824    0.0050966230
      4851.48       1.8156904    0.0050878263
      4856.33       1.8204833    0.0050448187
      4861.19       1.8276234    0.0050691173
      4866.05       1.8245753    0.0050263358
      4870.92       1.8256124    0.0050508005
      4875.79       1.8313809    0.0050086675
      4880.66       1.8395980    0.0049985387
      4885.55       1.8437183    0.0050230674
      4890.43       1.8426296    0.0049810356
      4895.32       1.8462469    0.0049712160
      4900.22       1.8549107    0.0049630917
      4905.12       1.8709316    0.0049535689
      4910.02       1.8857873    0.0049114511
      4914.94       1.8972658    0.0049355871
      4919.85       1.9052382    0.0049260532
      4924.77       1.9101641    0.0048846023
      4929.70       1.9136540    0.0049084073
      4934.62       1.9161501    0.0048989402
      4939.56       1.9137234    0.0048579707
      4944.50       1.9043453    0.0048492310
      4949.44       1.8907008    0.0048397923
      4954.39       1.8783999    0.0048310122
      4959.35       1.8757997    0.0048226162
      4964.31       1.8766806    0.0048132252
      4969.27       1.8754177    0.0048041778
      4974.24       1.8783947    0.0047958940
      4979.22       1.8865673    0.0047557600
      4984.20       1.9055966    0.0047777108
      4989.18       1.9473281    0.0047692454
      4994.17       2.0046252    0.0047300557
      4999.16       2.0691816    0.0047206689
      5004.16       2.1343738    0.0047118850
      5009.17       2.1987687    0.0047342440
      5014.18       2.2517042    0.0046950913
      5019.19       2.2961288    0.0046859645
      5024.21       2.3242021    0.0046773896
      5029.23       2.3301465    0.0046384870
      5034.26       2.3222543    0.0046606643
      5039.30       2.2944582    0.0046517220
      5044.34       2.2559558    0.0046428725
      5049.39       2.2171238    0.0046041133
      5054.43       2.1730689    0.0045957334
      5059.49       2.1251472    0.0045876627
      5064.55       2.0738891    0.0046087040
      5069.61       2.0246973    0.0045999418
      5074.68       1.9775007    0.0045620417
      5079.76       1.9350076    0.0046145899
      5084.84       1.8995760    0.0048338504
      5089.92       1.8702814    0.0051613032
      5095.01       1.8504106    0.0057190293
      5100.11       1.8354409    0.0069685062
      5105.21       1.8289415    0.0094629420
      5110.31       1.8290512     0.014703084
      5115.42       2.0364725    0.0031876312
      5120.54       2.0356122    0.0031997968
      5125.66       2.0343386    0.0032128985
      5130.79       2.0334484    0.0032486318
      5135.92       2.0301904    0.0032882260
      5141.05       2.0282008    0.0033173175
      5146.20       2.0269466    0.0033651061
      5151.34       2.0247452    0.0034223795
      5156.49       2.0221870    0.0034500085
      5161.65       2.0184220    0.0035106845
      5166.81       2.0147558    0.0035664687
      5171.98       2.0104709    0.0036233920
      5177.15       2.0059527    0.0036605484
      5182.33       2.0006963    0.0037181431
      5187.51       1.9945553    0.0037566091
      5192.70       1.9884715    0.0038085170
      5197.89       1.9815106    0.0038624794
      5203.09       1.9735516    0.0038945378
      5208.29       1.9647778    0.0039359031
      5213.50       1.9556991    0.0039596422
      5218.72       1.9438159    0.0039975117
      5223.93       1.9304547    0.0040201260
      5229.16       1.9204471    0.0040262527
      5234.39       1.9113479    0.0040436067
      5239.62       1.9002842    0.0040413539
      5244.86       1.8872646    0.0040260214
      5250.11       1.8734597    0.0040065564
      5255.36       1.8553609    0.0039914504
      5260.61       1.8373576    0.0038580448
      5265.87       1.8158232    0.0038066775
      5271.14       1.7938001    0.0037662596
      5276.41       1.7717950    0.0037124932
      5281.69       1.7459780    0.0036431577
      5286.97       1.7220583    0.0035879755
      5292.26       1.6968339    0.0035300036
      5297.55       1.6738354    0.0034457204
      5302.85       1.6494780    0.0033846697
      5308.15       1.6265310    0.0033213832
      5313.46       1.6049350    0.0032382989
      5318.77       1.5847853    0.0031755711
      5324.09       1.5661857    0.0031131707
      5329.42       1.5475878    0.0030364870
      5334.75       1.5300417    0.0029752491
      5340.08       1.5117611    0.0029028871
      5345.42       1.4942448    0.0028466137
      5350.77       1.4758935    0.0027953042
      5356.12       1.4585049    0.0027430846
      5361.48       1.4399359    0.0026794726
      5366.83       1.4229505    0.0026315813
      5372.20       1.4056595    0.0025745345
      5377.58       1.3885432    0.0025354115
      5382.95       1.3727650    0.0024947757
      5388.34       1.3571753    0.0024453523
      5393.72       1.4687159     0.062013346
      5399.12       1.5026138     0.031057718
      5404.52       1.4797637     0.016114439
      5409.92       1.4570796    0.0098414409
      5415.33       1.4326936    0.0067943142
      5420.75       1.4113346    0.0053517198
      5426.17       1.3941401    0.0046786177
      5431.60       1.3782416    0.0042747333
      5437.03       1.3633307    0.0040302084
      5442.47       1.3459432    0.0038876565
      5447.91       1.3289792    0.0038569456
      5453.36       1.3109573    0.0038500080
      5458.81       1.2905352    0.0038663420
      5464.27       1.2669504    0.0038363485
