# starting wavelength =        3329.4400
# ending wavelength =        10418.300
# O2 telluric scale =        0
# O2 telluric shift =        0
# H2O telluric scale =        0
# H2O telluric shift =        0
      3331.61       4.6661367     0.085566858
      3334.94       4.6894917     0.068055345
      3338.27       4.7156198     0.062335498
      3341.61       4.7438321     0.054096997
      3344.95       4.7717209     0.045563084
      3348.30       4.7997266     0.042958983
      3351.65       4.8280127     0.037698124
      3355.00       4.8579742     0.036102697
      3358.35       4.8883444     0.032949593
      3361.71       4.9152775     0.031936838
      3365.07       4.9357690     0.030056578
      3368.44       4.9432637     0.028856467
      3371.81       4.9540025     0.028251438
      3375.18       4.9665340     0.027289711
      3378.56       4.9786808     0.026820106
      3381.94       4.9910717     0.026195181
      3385.32       5.0054705     0.025807270
      3388.70       5.0190588     0.025389021
      3392.09       5.0246567     0.024758313
      3395.48       5.0330733     0.024702881
      3398.88       5.0374604     0.024649441
      3402.28       5.0403995     0.024597979
      3405.68       5.0423884     0.024798937
      3409.09       5.0416308     0.024739460
      3412.49       5.0399104     0.024682315
      3415.91       5.0342957     0.024338426
      3419.32       5.0247648     0.024286502
      3422.74       5.0137724     0.024490825
      3426.17       5.0084194     0.024430695
      3429.59       5.0003036     0.024372500
      3433.02       4.9861241     0.024317022
      3436.45       4.9731631     0.024531532
      3439.89       4.9578991     0.024184475
      3443.33       4.9403403     0.024123692
      3446.78       4.9216175     0.024065392
      3450.22       4.9034531     0.024009704
      3453.67       4.8892662     0.024221382
      3457.13       4.8745766     0.024170253
      3460.58       4.8573319     0.023820203
      3464.04       4.8432889     0.023762067
      3467.51       4.8263824     0.023968151
      3470.98       4.8117356     0.023914311
      3474.45       4.7975710     0.023863199
      3477.92       4.7826951     0.023815417
      3481.40       4.7646716     0.024013758
      3484.88       4.7466030     0.023663929
      3488.37       4.7258368     0.023610961
      3491.86       4.7054432     0.023560883
      3495.35       4.6894325     0.023513729
      3498.84       4.6807877     0.023708169
      3502.34       4.6684715     0.023651637
      3505.84       4.6571892     0.023310238
      3509.35       4.6419638     0.023261443
      3512.86       4.6203325     0.023462492
      3516.37       4.5999648     0.023404453
      3519.89       4.5820433     0.023349811
      3523.41       4.5661666     0.023013891
      3526.93       4.5498709     0.023220453
      3530.46       4.5351399     0.023160878
      3533.99       4.5205413     0.023104243
      3537.53       4.5030395     0.023320440
      3541.06       4.4794672     0.023270445
      3544.60       4.4498596     0.022919499
      3548.15       4.4260677     0.022861900
      3551.70       4.3975718     0.023073731
      3555.25       4.3740319     0.023022993
      3558.80       4.3527212     0.022976111
      3562.36       4.3354218     0.022622398
      3565.92       4.3126789     0.022830401
      3569.49       4.2895214     0.022778400
      3573.06       4.2665472     0.022730291
      3576.64       4.2429269     0.022687462
      3580.21       4.2236527     0.022880728
      3583.79       4.2013557     0.022536152
      3587.38       4.1791606     0.022488018
      3590.96       4.1582987     0.022697025
      3594.55       4.1354279     0.022638594
      3598.15       4.1120839     0.022585002
      3601.75       4.0856028     0.022248386
      3605.35       4.0584166     0.022456515
      3608.96       4.0321835     0.022398124
      3612.56       4.0075648     0.022344488
      3616.18       3.9788380     0.022570606
      3619.79       3.9461052     0.022217871
      3623.41       3.9185897     0.022159765
      3627.04       3.8895926     0.022379192
      3630.66       3.8626462     0.022330241
      3634.29       3.8327754     0.021981117
      3637.93       3.8088326     0.021923314
      3641.57       3.7826897     0.022140776
      3645.21       3.7614104     0.022092354
      3648.86       3.7391144     0.022049799
      3652.50       3.7096942     0.021956585
      3656.16       3.6893078     0.021904100
      3659.81       3.6716241     0.021857472
      3663.47       3.6600512     0.022400438
      3667.14       3.6507750     0.022682228
      3670.80       3.6463574     0.023171770
      3674.48       3.6438926     0.023544812
      3678.15       3.6358441     0.024348107
      3681.83       3.6370153     0.025441605
      3685.51       3.6459987     0.026128337
      3689.20       3.6594590     0.027567849
      3692.88       3.6706105     0.030384053
      3696.58       3.6867634     0.032067314
      3700.27       3.7063417     0.035649885
      3703.98       3.7273734     0.043478061
      3707.68       3.7535915     0.048311298
      3711.39       3.7900355     0.058989139
      3715.10       3.8347372     0.079866000
      3718.81       3.8846665     0.093854395
      3722.53       3.7388409     0.054472282
      3726.26       3.7529557     0.058920312
      3729.98       3.7684524     0.064407689
      3733.71       3.7821976     0.068858239
      3737.45       3.7615781     0.075072588
      3741.18       3.7348859     0.080408049
      3744.93       3.7045147     0.091802137
      3748.67       3.6501313     0.077005470
      3752.42       3.6220081     0.070852678
      3756.17       3.6025125     0.074664248
      3759.93       3.6043755     0.067198242
      3763.69       3.5866858     0.054147132
      3767.45       3.6005288      0.13676352
      3771.22       3.6177510     0.095232393
      3774.99       3.6289295     0.080254230
      3778.77       3.6415208     0.061684761
      3782.54       3.6515666     0.046112028
      3786.33       3.6681077     0.041157794
      3790.11       3.6928470     0.033132361
      3793.90       3.7343798     0.029494364
      3797.70       3.7867349     0.027793495
      3801.50       3.8499889     0.025143065
      3805.30       3.9173768     0.024237178
      3809.10       3.9927532     0.022991852
      3812.91       4.0525297     0.022048559
      3816.73       4.1137441     0.021571296
      3820.54       4.1829061     0.021087398
      3824.36       4.2806253     0.020424278
      3828.19       4.3678117     0.020662335
      3832.02       4.4418332     0.020601329
      3835.85       4.4988610     0.020550585
      3839.68       4.5467630     0.020488484
      3843.52       4.5650851     0.020427337
      3847.37       4.5820311     0.020680325
      3851.22       4.5677110     0.020315584
      3855.07       4.5551088     0.020254216
      3858.92       4.5258057     0.020504208
      3862.78       4.4853932     0.020462909
      3866.64       4.4260443     0.020081229
      3870.51       4.3504306     0.020329366
      3874.38       4.2698888     0.020289245
      3878.26       4.1561082     0.020208102
      3882.13       4.0659276     0.020157287
      3886.02       3.9751351     0.020118600
      3889.90       3.8759822     0.020350113
      3893.79       3.7874889     0.019986309
      3897.69       3.6980158     0.020237843
      3901.59       3.6294993     0.020175448
      3905.49       3.5804749     0.019816535
      3909.39       3.5427238     0.020063358
      3913.30       3.5202274     0.020003595
      3917.22       3.5094491     0.020275927
      3921.13       3.4831035     0.019890296
      3925.06       3.4476230     0.020150023
      3928.98       3.4185184     0.020104566
      3932.91       3.4044040     0.019717248
      3936.84       3.4030476     0.019977442
      3940.78       3.4040417     0.019935938
      3944.72       3.4183078     0.020189653
      3948.67       3.4218324     0.019808264
      3952.61       3.4252596     0.019771059
      3956.57       3.4282712     0.020015694
      3960.52       3.4258399     0.019640980
      3964.48       3.4167880     0.019903549
      3968.45       3.4091819     0.019842405
      3972.42       3.4024452     0.019800496
      3976.39       3.3931103     0.019728626
      3980.37       3.3871999     0.020012319
      3984.35       3.3716652     0.019623163
      3988.33       3.3592742     0.019557107
      3992.32       3.3458002     0.019844179
      3996.31       3.3322192     0.019447469
      4000.31       3.3161851     0.019721943
      4004.31       3.3068714     0.019678530
      4008.31       3.2998166     0.019953269
      4012.32       3.2967795     0.019553763
      4016.33       3.2967702     0.019517966
      4020.35       3.2986504     0.019778254
      4024.37       3.3072536     0.019390738
      4028.40       3.3206679     0.019666101
      4032.42       3.3396221     0.019607636
      4036.46       3.3650501     0.019561887
      4040.50       3.3869473     0.019491128
      4044.54       3.4145530     0.019463530
      4048.58       3.4399805     0.019382421
      4052.63       3.4633970     0.019322342
      4056.68       3.4804338     0.019279381
      4060.74       3.4973344     0.019209290
      4064.80       3.5110152     0.019181277
      4068.86       3.5231964     0.019101033
      4072.93       3.5394905     0.019042208
      4077.01       3.5601688     0.018997518
      4081.08       3.5757550     0.018929870
      4085.17       3.5913136     0.018558201
      4089.25       3.6113480     0.018821914
      4093.34       3.6381647     0.018443598
      4097.43       3.6633753     0.018717854
      4101.53       3.6847836     0.018654122
      4105.63       3.7090191     0.018291451
      4109.74       3.7317144     0.018545333
      4113.85       3.7534318     0.018176911
      4117.96       3.7778929     0.018441625
      4122.08       3.7961149     0.018066740
      4126.20       3.8066785     0.018341275
      4130.33       3.8031686     0.018274765
      4134.46       3.7903949     0.017917201
      4138.59       3.7746398     0.018169050
      4142.73       3.7402078     0.017806284
      4146.88       3.7019603     0.018066229
      4151.02       3.6618012     0.017699159
      4155.18       3.6243260     0.017665229
      4159.33       3.5760101     0.017593862
      4163.49       3.5392069     0.017554398
      4167.65       3.5026331     0.017797879
      4171.82       3.4678923     0.017445377
      4175.99       3.4295116     0.017696702
      4180.17       3.3937184     0.017339562
      4184.35       3.3596004     0.017310510
      4188.54       3.3286846     0.017236562
      4192.72       3.3039987     0.017202259
      4196.92       3.2849862     0.017134375
      4201.11       3.2628469     0.017095589
      4205.31       3.2417014     0.017034545
      4209.52       3.2224134     0.016991130
      4213.73       3.2044264     0.016647503
      4217.94       3.1826372     0.016888513
      4222.16       3.1616531     0.016863983
      4226.38       3.1441069     0.016788014
      4230.61       3.1290983     0.016758675
      4234.84       3.1188121     0.016687803
      4239.08       3.1114483     0.016655496
      4243.32       3.1111520     0.016589627
      4247.56       3.1049217     0.016554119
      4251.81       3.1050142     0.016212376
      4256.06       3.0931570     0.016454612
      4260.32       3.0661676     0.016118087
      4264.58       3.0428802     0.016356202
      4268.84       3.0206227     0.016023839
      4273.11       3.0025291     0.016258139
      4277.38       2.9848957     0.015930822
      4281.66       2.9676168     0.016161889
      4285.94       2.9507087     0.015839145
      4290.23       2.9356260     0.016067230
      4294.52       2.9233556     0.015748065
      4298.81       2.9071681     0.015972429
      4303.11       2.9000498     0.015656642
      4307.42       2.8945309     0.015608804
      4311.72       2.8924500     0.015566543
      4316.04       2.8903613     0.015517403
      4320.35       2.8864229     0.015476892
      4324.67       2.8940193     0.015427409
      4329.00       2.9129776     0.015387353
      4333.33       2.9388972     0.015337370
      4337.66       2.9653502     0.015298072
      4342.00       2.9907409     0.015248062
      4346.34       3.0303716     0.015209211
      4350.69       3.0606501     0.015160011
      4355.04       3.0963291     0.015121534
      4359.39       3.1229861     0.015072840
      4363.75       3.1506459     0.015034179
      4368.12       3.1713010     0.014986123
      4372.48       3.1948266     0.014946441
      4376.86       3.2013994     0.014899701
      4381.23       3.1971191     0.014859995
      4385.61       3.1855917     0.014574729
      4390.00       3.1679161     0.014773957
      4394.39       3.1410984     0.014492199
      4398.79       3.1079162     0.014688221
      4403.18       3.0868511     0.014409249
      4407.59       3.0719816     0.014602911
      4412.00       3.0695790     0.014327782
      4416.41       3.0698704     0.014518383
      4420.82       3.0729091     0.014247829
      4425.25       3.0765070     0.014435450
      4429.67       3.0761612     0.014168402
      4434.10       3.0752221     0.014352783
      4438.54       3.0797359     0.014090111
      4442.97       3.0944064     0.014039960
      4447.42       3.1165860     0.014012467
      4451.86       3.1537158     0.013960845
      4456.32       3.1864484     0.013936701
      4460.77       3.2263142     0.013883139
      4465.24       3.2600347     0.013862889
      4469.70       3.3057218     0.013806448
      4474.17       3.3382305     0.013992481
      4478.65       3.3651263     0.013730429
      4483.12       3.3888619     0.013687724
      4487.61       3.3940269     0.013656287
      4492.09       3.3907519     0.013610892
      4496.59       3.3759650     0.013584160
      4501.08       3.3470570     0.013535284
      4505.58       3.3168680     0.013512596
      4510.09       3.2658352     0.013460671
      4514.60       3.2114015     0.013209682
      4519.12       3.1487894     0.013388290
      4523.63       3.0987821     0.013135653
      4528.16       3.0446529     0.013318278
      4532.69       2.9959176     0.013274163
      4537.22       2.9567252     0.013249356
      4541.76       2.9230821     0.013201253
      4546.30       2.8956667     0.012957084
      4550.85       2.8719553     0.013130948
      4555.40       2.8508967     0.012884416
      4559.95       2.8331203     0.013063358
      4564.51       2.8160431     0.012813911
      4569.08       2.7975168     0.012784652
      4573.65       2.7779060     0.012951051
      4578.22       2.7625152     0.012711260
      4582.80       2.7497295     0.012883580
      4587.38       2.7391412     0.012640912
      4591.97       2.7302936     0.012615431
      4596.56       2.7182589     0.012572980
      4601.16       2.7052105     0.012542686
      4605.76       2.6937013     0.012709695
      4610.37       2.6811951     0.012472115
      4614.98       2.6689309     0.012448651
      4619.59       2.6566997     0.012405171
      4624.21       2.6486274     0.012376759
      4628.84       2.6400246     0.012341162
      4633.47       2.6313676     0.012308276
      4638.10       2.6218127     0.012285796
      4642.74       2.6088639     0.012242302
      4647.38       2.5965793     0.012214454
      4652.03       2.5806256     0.012179767
      4656.68       2.5605299     0.012147174
      4661.34       2.5392819     0.012125027
      4666.00       2.5165447     0.012083467
      4670.67       2.4867218     0.012055713
      4675.33       2.4565347     0.011841202
      4680.01       2.4269580     0.011989796
      4684.69       2.3920445     0.011966472
      4689.38       2.3644553     0.011747958
      4694.07       2.3375560     0.011899903
      4698.76       2.3146989     0.011692136
      4703.46       2.2908442     0.011837756
      4708.16       2.2708024     0.011812583
      4712.87       2.2526998     0.011601523
      4717.58       2.2345726     0.011748479
      4722.30       2.2144524     0.011548927
      4727.03       2.1970526     0.011513417
      4731.75       2.1777265     0.011662349
      4736.48       2.1551040     0.011460092
      4741.22       2.1347492     0.011427038
      4745.96       2.1143765     0.011411770
      4750.71       2.0918901     0.011373388
      4755.46       2.0678900     0.011342904
      4760.22       2.0496679     0.011325438
      4764.97       2.0330836     0.011289871
      4769.74       2.0200219     0.011261453
      4774.51       2.0114677     0.011241578
      4779.29       2.0093232     0.011207624
      4784.07       2.0120344     0.011180530
      4788.85       2.0145652     0.011159447
      4793.64       2.0215586     0.011127376
      4798.43       2.0279923     0.010934884
      4803.23       2.0378497     0.011080000
      4808.03       2.0505364     0.011048768
      4812.84       2.0625988     0.010857951
      4817.66       2.0747153     0.011001543
      4822.48       2.0836227     0.010971431
      4827.30       2.0931030     0.010782914
      4832.12       2.1038842     0.010925788
      4836.96       2.1116131     0.010896450
      4841.79       2.1184017     0.010709249
      4846.63       2.1247768     0.010851760
      4851.48       2.1308015     0.010822449
      4856.33       2.1376954     0.010636428
      4861.19       2.1426139     0.010779464
      4866.05       2.1463872     0.010750713
      4870.92       2.1515471     0.010565481
      4875.79       2.1539388     0.010547443
      4880.66       2.1569870     0.010679743
      4885.55       2.1599428     0.010495263
      4890.43       2.1649139     0.010476930
      4895.32       2.1739575     0.010611105
      4900.22       2.1852672     0.010427520
      4905.12       2.1957629     0.010408727
      4910.02       2.2055617     0.010394610
      4914.94       2.2189737     0.010361159
      4919.85       2.2368245     0.010341277
      4924.77       2.2604196     0.010326232
      4929.70       2.2807527     0.010296588
      4934.62       2.3051973     0.010276067
      4939.56       2.3270746     0.010259860
      4944.50       2.3439625     0.010089328
      4949.44       2.3628691     0.010212320
      4954.39       2.3691386     0.010194581
      4959.35       2.3755564     0.010029986
      4964.31       2.3942839     0.010150980
      4969.27       2.4128678     0.010132237
      4974.24       2.4457151     0.010117534
      4979.22       2.4959646    0.0099495202
      4984.20       2.5460678     0.010071810
      4989.18       2.6098465     0.010055231
      4994.17       2.6771249    0.0098940779
      4999.16       2.7470052    0.0098727255
      5004.16       2.8138699    0.0099960886
      5009.17       2.8840897    0.0098422951
      5014.18       2.9561626    0.0099596246
      5019.19       3.0241513     0.010270673
      5024.21       3.0852263     0.010653266
      5029.23       3.1259555     0.011183461
      5034.26       3.1602840     0.011971122
      5039.30       3.1717849     0.013152876
      5044.34       3.1573711     0.015031293
      5049.39       3.1292536     0.017154135
      5054.43       3.1023631     0.014349837
      5059.49       3.0662633     0.014867719
      5064.55       3.0247135     0.016563955
      5069.61       2.9676245     0.017806542
      5074.68       2.8831576     0.019052660
      5079.76       2.7602280     0.019703922
      5084.84       2.6480166     0.019653921
      5089.92       2.5474276     0.018547462
      5095.01       2.4762707     0.017195311
      5100.11       2.4311160     0.015908919
      5105.21       2.3920046     0.014845053
      5110.31       2.3562538     0.013708617
      5115.42       2.3205006     0.018342440
