# starting wavelength =        3484.6000
# ending wavelength =        7294.8300
# O2 telluric scale =        0
# O2 telluric shift =        0
# H2O telluric scale =        0
# H2O telluric shift =        0
      3484.88       1.1091312     0.040553414
      3488.37       1.1373491     0.034936655
      3491.86       1.1665058     0.027471937
      3495.35       1.1845993     0.025559558
      3498.84       1.1980738     0.020969516
      3502.34       1.2096503     0.019864898
      3505.84       1.2212065     0.017074893
      3509.35       1.2305681     0.016405335
      3512.86       1.2350960     0.014721970
      3516.37       1.2355252     0.014282958
      3519.89       1.2390595     0.013595620
      3523.41       1.2328118     0.012827999
      3526.93       1.2238643     0.012546087
      3530.46       1.2147163     0.012055555
      3533.99       1.2076740     0.011821068
      3537.53       1.2014942     0.011489316
      3541.06       1.1954667     0.011283687
      3544.60       1.1911865     0.011048385
      3548.15       1.1898664     0.010862404
      3551.70       1.1811795     0.010994375
      3555.25       1.1750587     0.010948670
      3558.80       1.1706752     0.010903178
      3562.36       1.1715878     0.010857647
      3565.92       1.1754651     0.010812240
      3569.49       1.1792203     0.010766962
      3573.06       1.1862388     0.010721801
      3576.64       1.1948683     0.010676758
      3580.21       1.2044055     0.010631599
      3583.79       1.2169379     0.010734194
      3587.38       1.2235119     0.010858775
      3590.96       1.2391683     0.010812821
      3594.55       1.2535580     0.010767083
      3598.15       1.2641999     0.010721538
      3601.75       1.2718646     0.010676186
      3605.35       1.2792028     0.010630753
      3608.96       1.2854827     0.010585422
      3612.56       1.2908318     0.010540189
      3616.18       1.2965494     0.010495043
      3619.79       1.3005060     0.010449983
      3623.41       1.3058480     0.010579945
      3627.04       1.3028988     0.010534370
      3630.66       1.2955055     0.010488884
      3634.29       1.2834449     0.010443501
      3637.93       1.2683436     0.010397970
      3641.57       1.2456959     0.010506891
      3645.21       1.2298051     0.010461102
      3648.86       1.2157136     0.010415521
      3652.50       1.2020359     0.010369867
      3656.16       1.1882965     0.010324316
      3659.81       1.1758177     0.010278864
      3663.47       1.1650127     0.010233520
      3667.14       1.1575086     0.010369327
      3670.80       1.1506327     0.010323410
      3674.48       1.1464890     0.010277590
      3678.15       1.1437709     0.010231872
      3681.83       1.1435067     0.010186272
      3685.51       1.1485619     0.010140779
      3689.20       1.1619888     0.010257883
      3692.88       1.1773244     0.010211711
      3696.58       1.1929706     0.010165452
      3700.27       1.2070320     0.010119376
      3703.98       1.2185373     0.010073460
      3707.68       1.2302774     0.010027693
      3711.39       1.2399455     0.010170123
      3715.10       1.2540832     0.010123786
      3718.81       1.2645803     0.010077589
      3722.53       1.2693419     0.010031540
      3726.26       1.2686878    0.0099856268
      3729.98       1.2629978     0.010113413
      3733.71       1.2555200     0.010067025
      3737.45       1.2486727     0.010020829
      3741.18       1.2424552    0.0099748564
      3744.93       1.2364542    0.0099284064
      3748.67       1.2314138    0.0098822121
      3752.42       1.2236013    0.0098362656
      3756.17       1.2118095    0.0097905388
      3759.93       1.1994052    0.0097450296
      3763.69       1.1838817    0.0098856993
      3767.45       1.1747682     0.010036066
      3771.22       1.1661557    0.0099894145
      3774.99       1.1604254    0.0099430083
      3778.77       1.1613780    0.0098968597
      3782.54       1.1665168    0.0098509808
      3786.33       1.1712719    0.0098054099
      3790.11       1.1755139    0.0097601708
      3793.90       1.1793288    0.0097147527
      3797.70       1.1831462    0.0098491233
      3801.50       1.1848635    0.0097999502
      3805.30       1.1857587    0.0097511579
      3809.10       1.1823458    0.0097026582
      3812.91       1.1780719    0.0096544740
      3816.73       1.1761668    0.0096066074
      3820.54       1.1754506    0.0095590554
      3824.36       1.1779457    0.0097125925
      3828.19       1.1820078    0.0096646948
      3832.02       1.1847057    0.0096172545
      3835.85       1.1864660    0.0097904757
      3839.68       1.1854082    0.0097418979
      3843.52       1.1854484    0.0096937560
      3847.37       1.1877946    0.0096459361
      3851.22       1.1907701    0.0095984649
      3855.07       1.1971252    0.0097744479
      3858.92       1.2043377    0.0097264200
      3862.78       1.2081578    0.0096791252
      3866.64       1.2090767    0.0096325427
      3870.51       1.2107481    0.0095866774
      3874.38       1.2099014    0.0095415439
      3878.26       1.2049924    0.0094971544
      3882.13       1.1996529    0.0094528983
      3886.02       1.1954315    0.0094091463
      3889.90       1.1891998    0.0091153711
      3893.79       1.1873683    0.0090673074
      3897.69       1.1863124    0.0090197573
      3901.59       1.1845329    0.0089726740
      3905.49       1.1830235    0.0091347030
      3909.39       1.1819324    0.0090872805
      3913.30       1.1810984    0.0090407064
      3917.22       1.1806812    0.0089950030
      3921.13       1.1799429    0.0089501624
      3925.06       1.1796285    0.0089062048
      3928.98       1.1793157    0.0088631343
      3932.91       1.1783319    0.0088203715
      3936.84       1.1777258    0.0087782932
      3940.78       1.1774370    0.0085169799
      3944.72       1.1792307    0.0084698879
      3948.67       1.1813077    0.0084234731
      3952.61       1.1831306    0.0083774234
      3956.57       1.1859332    0.0083322845
      3960.52       1.1899074    0.0082880419
      3964.48       1.1939349    0.0082446955
      3968.45       1.2002211    0.0083937115
      3972.42       1.2011858    0.0083511527
      3976.39       1.1991601    0.0083096013
      3980.37       1.1940614    0.0082691056
      3984.35       1.1862423    0.0082291103
      3988.33       1.1738659    0.0079880452
      3992.32       1.1653786    0.0079425920
      3996.31       1.1567863    0.0078980060
      4000.31       1.1480111    0.0078542982
      4004.31       1.1395508    0.0078111837
      4008.31       1.1328510    0.0077691710
      4012.32       1.1284686    0.0077282609
      4016.33       1.1258653    0.0076884451
      4020.35       1.1256618    0.0076497058
      4024.37       1.1319459    0.0076142190
      4028.40       1.1380533    0.0075693612
      4032.42       1.1477534    0.0075251754
      4036.46       1.1601321    0.0074820245
      4040.50       1.1710506    0.0074398656
      4044.54       1.1786685    0.0073987500
      4048.58       1.1838596    0.0073586925
      4052.63       1.1861640    0.0073193673
      4056.68       1.1855149    0.0072813199
      4060.74       1.1829389    0.0070813645
      4064.80       1.1805064    0.0070466300
      4068.86       1.1742903    0.0071666991
      4072.93       1.1636706    0.0071248369
      4077.01       1.1530513    0.0070842837
      4081.08       1.1456317    0.0070451358
      4085.17       1.1417973    0.0070068500
      4089.25       1.1420860    0.0069696466
      4093.34       1.1466978    0.0069337088
      4097.43       1.1572205    0.0067435012
      4101.53       1.1639231    0.0067106298
      4105.63       1.1726385    0.0066790157
      4109.74       1.1880807    0.0067842269
      4113.85       1.1995045    0.0067457149
      4117.96       1.2075143    0.0067086207
      4122.08       1.2118978    0.0066729840
      4126.20       1.2071434    0.0064896120
      4130.33       1.2030679    0.0064577650
      4134.46       1.1976404    0.0064268970
      4138.59       1.1913108    0.0063972021
      4142.73       1.1796628    0.0064998315
      4146.88       1.1689695    0.0064629012
      4151.02       1.1582883    0.0064271889
      4155.18       1.1499374    0.0063931380
      4159.33       1.1449929    0.0062182531
      4163.49       1.1401288    0.0061883373
      4167.65       1.1369325    0.0061598406
      4171.82       1.1352476    0.0061327715
      4175.99       1.1339836    0.0061071814
      4180.17       1.1351981    0.0061953502
      4184.35       1.1364487    0.0060246559
      4188.54       1.1369288    0.0059948003
      4192.72       1.1367643    0.0059662941
      4196.92       1.1355320    0.0059391931
      4201.11       1.1327258    0.0059132712
      4205.31       1.1286673    0.0058889595
      4209.52       1.1243352    0.0059750464
      4213.73       1.1202299    0.0058116651
      4217.94       1.1191748    0.0057837542
      4222.16       1.1208485    0.0057574457
      4226.38       1.1235157    0.0057327680
      4230.61       1.1257656    0.0057097449
      4234.84       1.1275468    0.0056880468
      4239.08       1.1303693    0.0055238055
      4243.32       1.1311394    0.0056145767
      4247.56       1.1312161    0.0055887084
      4251.81       1.1312734    0.0055645966
      4256.06       1.1305212    0.0055422226
      4260.32       1.1267547    0.0055215889
      4264.58       1.1189435    0.0053662633
      4268.84       1.1137370    0.0054553732
      4273.11       1.1092257    0.0054313831
      4277.38       1.1058650    0.0054090751
      4281.66       1.1029414    0.0053885802
      4285.94       1.0997460    0.0053696057
      4290.23       1.0978563    0.0052206875
      4294.52       1.0952671    0.0051969573
      4298.81       1.0947007    0.0052859817
      4303.11       1.0964094    0.0052650196
      4307.42       1.0986718    0.0052459648
      4311.72       1.1027995    0.0051080501
      4316.04       1.1069855    0.0050845469
      4320.35       1.1114615    0.0050628729
      4324.67       1.1175094    0.0051520188
      4329.00       1.1218338    0.0051336390
      4333.33       1.1260876    0.0050048092
      4337.66       1.1277697    0.0049815277
      4342.00       1.1273432    0.0049600468
      4346.34       1.1263548    0.0049401821
      4350.69       1.1256293    0.0050290624
      4355.04       1.1246566    0.0050126706
      4359.39       1.1231428    0.0048845645
      4363.75       1.1216190    0.0048636468
      4368.12       1.1198668    0.0048446674
      4372.48       1.1182821    0.0048275618
      4376.86       1.1148845    0.0049175004
      4381.23       1.1124120    0.0047953588
      4385.61       1.1097284    0.0047751124
      4390.00       1.1080187    0.0047568007
      4394.39       1.1070189    0.0047402392
      4398.79       1.1087522    0.0047325089
      4403.18       1.1112235    0.0047110416
      4407.59       1.1138093    0.0046916826
      4412.00       1.1151174    0.0046743778
      4416.41       1.1150581    0.0046591181
      4420.82       1.1139166    0.0046534018
      4425.25       1.1121875    0.0046331548
      4429.67       1.1103765    0.0046151281
      4434.10       1.1090687    0.0045989515
      4438.54       1.1082550    0.0045848410
      4442.97       1.1071230    0.0044818534
      4447.42       1.1054322    0.0045599169
      4451.86       1.1039775    0.0045429054
      4456.32       1.1011700    0.0045280863
      4460.77       1.0955254    0.0044261939
      4465.24       1.0912810    0.0044159575
      4469.70       1.0868914    0.0044920078
      4474.17       1.0857398    0.0044768036
      4478.65       1.0865181    0.0043757864
      4483.12       1.0882524    0.0043652063
      4487.61       1.0913324    0.0044452325
      4492.09       1.0937797    0.0044291287
      4496.59       1.0964939    0.0044154055
      4501.08       1.1024491    0.0043175518
      4505.58       1.1067255    0.0043086849
      4510.09       1.1124216    0.0043845981
      4514.60       1.1169161    0.0043707236
      4519.12       1.1203842    0.0042738996
      4523.63       1.1227986    0.0042650386
      4528.16       1.1239035    0.0042582956
      4532.69       1.1242624    0.0043296865
      4537.22       1.1200118    0.0042336240
      4541.76       1.1157226    0.0042244782
      4546.30       1.1112250    0.0042175328
      4550.85       1.1055980    0.0042903155
      4555.40       1.1020600    0.0041952078
      4559.95       1.0987046    0.0041863962
      4564.51       1.0954357    0.0041797976
      4569.08       1.0923078    0.0041754509
      4573.65       1.0911767    0.0041599795
      4578.22       1.0907659    0.0041515741
      4582.80       1.0906681    0.0041452649
      4587.38       1.0902603    0.0041411761
      4591.97       1.0887027    0.0041265344
      4596.56       1.0841259    0.0041181623
      4601.16       1.0794344    0.0041121645
      4605.76       1.0759047    0.0041085319
      4610.37       1.0718471    0.0040946291
      4614.98       1.0704789    0.0040869195
      4619.59       1.0693675    0.0040816196
      4624.21       1.0687824    0.0039915791
      4628.84       1.0679426    0.0040651236
      4633.47       1.0682362    0.0040580455
      4638.10       1.0682930    0.0040533694
      4642.74       1.0681863    0.0039628746
      4647.38       1.0666989    0.0040362994
      4652.03       1.0648194    0.0040299102
      4656.68       1.0637268    0.0040260581
      4661.34       1.0612771    0.0039352408
      4666.00       1.0610270    0.0040090893
      4670.67       1.0590401    0.0040037338
      4675.33       1.0547718    0.0039181226
      4680.01       1.0511453    0.0039090757
      4684.69       1.0441525    0.0039835763
      4689.38       1.0411490    0.0039792233
      4694.07       1.0411890    0.0038916326
      4698.76       1.0416576    0.0038834730
      4703.46       1.0446327    0.0039584120
      4708.16       1.0473751    0.0038753787
      4712.87       1.0496205    0.0038660143
      4717.58       1.0542486    0.0039396535
      4722.30       1.0572953    0.0038611766
      4727.03       1.0584543    0.0038508183
      4731.75       1.0581974    0.0038430644
      4736.48       1.0568269    0.0039180655
      4741.22       1.0546847    0.0038368346
      4745.96       1.0539547    0.0038290181
      4750.71       1.0531219    0.0038246131
      4755.46       1.0521458    0.0038303580
      4760.22       1.0519390    0.0038225315
      4764.97       1.0513887    0.0038177431
      4769.74       1.0513635    0.0038267125
      4774.51       1.0513575    0.0038174299
      4779.29       1.0519451    0.0038101996
      4784.07       1.0538059    0.0037370075
      4788.85       1.0562051    0.0038040733
      4793.64       1.0587412    0.0037941868
      4798.43       1.0611058    0.0037868230
      4803.23       1.0633040    0.0037850072
      4808.03       1.0644115    0.0037738676
      4812.84       1.0650378    0.0037658660
      4817.66       1.0647805    0.0037656993
      4822.48       1.0679861    0.0037532421
      4827.30       1.0728572    0.0037435822
      4832.12       1.0808186    0.0036686047
      4836.96       1.0867979    0.0037283360
      4841.79       1.0919338    0.0037175645
      4846.63       1.0968958    0.0036418503
      4851.48       1.1007004    0.0037006511
      4856.33       1.1014544    0.0036893961
      4861.19       1.0997348    0.0036146187
      4866.05       1.0975271    0.0036748359
      4870.92       1.0937530    0.0036630335
      4875.79       1.0880531    0.0035883376
      4880.66       1.0823667    0.0036490937
      4885.55       1.0767499    0.0036378662
      4890.43       1.0690533    0.0035637380
      4895.32       1.0612792    0.0035588901
      4900.22       1.0507308    0.0036130065
      4905.12       1.0455395    0.0035394620
      4910.02       1.0420094    0.0035346308
      4914.94       1.0419949    0.0035223515
      4919.85       1.0417163    0.0035145533
      4924.77       1.0421213    0.0035096815
      4929.70       1.0455766    0.0034967088
      4934.62       1.0469274    0.0034886644
      4939.56       1.0479382    0.0034835550
      4944.50       1.0474696    0.0034691245
      4949.44       1.0453203    0.0034610929
      4954.39       1.0434367    0.0034560359
      4959.35       1.0396179    0.0034402069
      4964.31       1.0388730    0.0034322253
      4969.27       1.0390524    0.0034272636
      4974.24       1.0419936    0.0034097735
      4979.22       1.0455120    0.0034019518
      4984.20       1.0503354    0.0033264346
      4989.18       1.0526403    0.0033775082
      4994.17       1.0543479    0.0033697263
      4999.16       1.0556294    0.0032929875
      5004.16       1.0569917    0.0033434204
      5009.17       1.0571521    0.0033359781
      5014.18       1.0573649    0.0033179444
      5019.19       1.0570592    0.0033077611
      5024.21       1.0552094    0.0032336021
      5029.23       1.0526739    0.0032805438
      5034.26       1.0481485    0.0032712687
      5039.30       1.0404325    0.0031974641
      5044.34       1.0309123    0.0032443533
      5049.39       1.0235024    0.0031714157
      5054.43       1.0181754    0.0031583895
      5059.49       1.0139147    0.0032071510
      5064.55       1.0146774    0.0031398697
      5069.61       1.0168085    0.0031309152
      5074.68       1.0215121    0.0031269594
      5079.76       1.0219613    0.0031160716
      5084.84       1.0219433    0.0031657387
      5089.92       1.0195929    0.0030969274
      5095.01       1.0188223    0.0030835519
      5100.11       1.0192670    0.0031280330
      5105.21       1.0197518    0.0030488499
      5110.31       1.0195592    0.0030317741
      5115.42       1.0178024    0.0030054504
      5120.54       1.0159758    0.0029849076
      5125.66       1.0118394    0.0029613696
      5130.79       1.0104479    0.0029408695
      5135.92       1.0095406    0.0029243614
      5141.05       1.0089812    0.0029008054
      5146.20       1.0088978    0.0028816149
      5151.34       1.0104708    0.0028612170
      5156.49       1.0128619    0.0028413290
      5161.65       1.0161773    0.0028248146
      5166.81       1.0208998    0.0028023099
      5171.98       1.0224969    0.0027845956
      5177.15       1.0234446    0.0027185423
      5182.33       1.0243930    0.0027456207
      5187.51       1.0262852    0.0026792327
      5192.70       1.0285977    0.0027078602
      5197.89       1.0295973    0.0026912070
      5203.09       1.0306927    0.0026280262
      5208.29       1.0305502    0.0026532934
      5213.50       1.0285393    0.0025898373
      5218.72       1.0255648    0.0026172620
      5223.93       1.0216925    0.0025544700
      5229.16       1.0201771    0.0025843092
      5234.39       1.0185266    0.0025686573
      5239.62       1.0163813    0.0025078502
      5244.86       1.0129693    0.0025330655
      5250.11       1.0104370    0.0024714033
      5255.36       1.0080802    0.0024965436
      5260.61       1.0061013    0.0024335078
      5265.87       1.0039237    0.0024204897
      5271.14       1.0010948    0.0023934552
      5276.41      0.99956586    0.0023791757
      5281.69      0.99927900    0.0023989303
      5286.97      0.99871777    0.0023381584
      5292.26      0.99911324    0.0023592098
      5297.55       1.0005757    0.0022987015
      5302.85       1.0014202    0.0022862991
      5308.15       1.0024368    0.0022592333
      5313.46       1.0024509    0.0022458346
      5318.77       1.0033945    0.0022193888
      5324.09       1.0044908    0.0022055270
      5329.42       1.0060648    0.0021805957
      5334.75       1.0067776    0.0021661073
      5340.08       1.0069025    0.0021093175
      5345.42       1.0073412    0.0021269226
      5350.77       1.0080176    0.0021152706
