# starting wavelength =        4501.6100
# ending wavelength =        7101.5700
# O2 telluric scale =        0
# O2 telluric shift =        0
# H2O telluric scale =        0
# H2O telluric shift =        0
      4505.58      0.42067486    0.0047289161
      4510.09      0.42003168    0.0039892462
      4514.60      0.41985128    0.0033921968
      4519.12      0.42006095    0.0029457247
      4523.63      0.42045098    0.0025696990
      4528.16      0.42142519    0.0022912632
      4532.69      0.42360880    0.0020588315
      4537.22      0.42636468    0.0018878353
      4541.76      0.42932679    0.0017459681
      4546.30      0.43176200    0.0016382138
      4550.85      0.43516905    0.0015560281
      4555.40      0.43849368    0.0014878513
      4559.95      0.44160405    0.0014366018
      4564.51      0.44533086    0.0013939931
      4569.08      0.45072415    0.0013596555
      4573.65      0.45592718    0.0013337216
      4578.22      0.46118621    0.0013127792
      4582.80      0.46732436    0.0013071827
      4587.38      0.47301945    0.0013080807
      4591.97      0.47990395    0.0013126290
      4596.56      0.48638691    0.0013203222
      4601.16      0.49317105    0.0013316978
      4605.76      0.49926130    0.0013436719
      4610.37      0.50581885    0.0013572979
      4614.98      0.51329953    0.0013708059
      4619.59      0.52029369    0.0013863298
      4624.21      0.52748749    0.0014007968
      4628.84      0.53519565    0.0014108536
      4633.47      0.54456682    0.0014227337
      4638.10      0.55246621    0.0014329016
      4642.74      0.55932813    0.0014390389
      4647.38      0.56559807    0.0014426255
      4652.03      0.57065546    0.0014461289
      4656.68      0.57378589    0.0014473084
      4661.34      0.57626508    0.0014446853
      4666.00      0.58020048    0.0014418238
      4670.67      0.58429676    0.0014404122
      4675.33      0.58622251    0.0014368447
      4680.01      0.58712790    0.0014365516
      4684.69      0.58803652    0.0014381299
      4689.38      0.58934709    0.0014395121
      4694.07      0.58999691    0.0014454984
      4698.76      0.59206209    0.0014541913
      4703.46      0.59528901    0.0014637095
      4708.16      0.59717917    0.0014781118
      4712.87      0.59954073    0.0014931103
      4717.58      0.60116106    0.0015121338
      4722.30      0.60358281    0.0015332209
      4727.03      0.60529890    0.0015532490
      4731.75      0.60871363    0.0015757462
      4736.48      0.61192763    0.0015958956
      4741.22      0.61475882    0.0016175696
      4745.96      0.61571425    0.0016381574
      4750.71      0.61492315    0.0016563490
      4755.46      0.61241368    0.0016721834
      4760.22      0.60824751    0.0016822130
      4764.97      0.60269115    0.0016832128
      4769.74      0.59622861    0.0016728092
      4774.51      0.59068608    0.0016639955
      4779.29      0.58519231    0.0016546318
      4784.07      0.57815529    0.0016456349
      4788.85      0.57497780    0.0016355236
      4793.64      0.57132982    0.0016300231
      4798.43      0.56982307    0.0016246936
      4803.23      0.56891787    0.0016261871
      4808.03      0.56853679    0.0016320686
      4812.84      0.56966169    0.0016427420
      4817.66      0.56783880    0.0016584375
      4822.48      0.56491561    0.0016753913
      4827.30      0.57355973    0.0023864159
      4832.12      0.57110920    0.0024373495
      4836.96      0.57133585    0.0024942166
      4841.79      0.56506013    0.0025483871
      4846.63      0.56187068    0.0026112966
      4851.48      0.55977832    0.0026743016
      4856.33      0.56179231    0.0027353208
      4861.19      0.56637642    0.0027922438
      4866.05      0.57507158    0.0028344127
      4870.92      0.58252591    0.0028763610
      4875.79      0.58560356    0.0029085346
      4880.66      0.59420956    0.0029299504
      4885.55      0.59270905    0.0029302108
      4890.43      0.58874851    0.0029403234
      4895.32      0.59043528    0.0029302298
      4900.22      0.59257004    0.0029011760
      4905.12      0.58478392    0.0028764201
      4910.02      0.57733405    0.0028464604
      4914.94      0.58618130    0.0028101678
      4919.85      0.60700024    0.0027736250
      4924.77      0.65294607    0.0019260770
      4929.70      0.66391387    0.0018992620
      4934.62      0.67447417    0.0018798058
      4939.56      0.68011472    0.0018547700
      4944.50      0.68109285    0.0018352458
      4949.44      0.68004985    0.0018137995
      4954.39      0.67648901    0.0018004243
      4959.35      0.66997650    0.0017831287
      4964.31      0.65951208    0.0017713138
      4969.27      0.64980631    0.0017607382
      4974.24      0.63056266    0.0017496034
      4979.22      0.60675441    0.0017433892
      4984.20      0.59471738    0.0017385736
      4989.18      0.59188540    0.0017325123
      4994.17      0.59827155    0.0017307325
      4999.16      0.61144697    0.0017298299
      5004.16      0.62981183    0.0017266314
      5009.17      0.64968676    0.0017292151
      5014.18      0.67241637    0.0017253271
      5019.19      0.69671912    0.0017198764
      5024.21      0.71910311    0.0017151984
      5029.23      0.73931567    0.0017080022
      5034.26      0.75566336    0.0016963833
      5039.30      0.76767157    0.0016773844
      5044.34      0.77442931    0.0016553154
      5049.39      0.77696478    0.0016271593
      5054.43      0.77714338    0.0015952696
      5059.49      0.77044730    0.0015556813
      5064.55      0.76093892    0.0015102183
      5069.61      0.74556407    0.0014630289
      5074.68      0.72954233    0.0014131869
      5079.76      0.71779093    0.0013649432
      5084.84      0.70723583    0.0013185116
      5089.92      0.69662057    0.0012749932
      5095.01      0.68558402    0.0012363928
      5100.11      0.67511822    0.0012036356
      5105.21      0.66517962    0.0011767792
      5110.31      0.65476646    0.0011591540
      5115.42      0.64604817    0.0011505195
      5120.54      0.64006871    0.0011515101
      5125.66      0.63006617    0.0011601876
      5130.79      0.61984489    0.0011804333
      5135.92      0.61205325    0.0012100890
      5141.05      0.60509867    0.0012483773
      5146.20      0.60080659    0.0012941913
      5151.34      0.59962078    0.0013425366
      5156.49      0.59829343    0.0013976149
      5161.65      0.60090285    0.0014557888
      5166.81      0.60558119    0.0015139713
      5171.98      0.61238703    0.0015696603
      5177.15      0.62229666    0.0016202341
      5182.33      0.63289874    0.0016611129
      5187.51      0.64286869    0.0016936708
      5192.70      0.65206563    0.0017153281
      5197.89      0.66252997    0.0017261601
      5203.09      0.67271672    0.0017241074
      5208.29      0.68186554    0.0017169851
      5213.50      0.69314328    0.0017040805
      5218.72      0.70414610    0.0016840287
      5223.93      0.70487184    0.0016666717
      5229.16      0.70326698    0.0016503917
      5234.39      0.70281258    0.0016341896
      5239.62      0.69997132    0.0016250213
      5244.86      0.69861413    0.0016185180
      5250.11      0.70068779    0.0016204926
      5255.36      0.70313719    0.0016283415
      5260.61      0.70717823    0.0016396701
      5265.87      0.71147801    0.0016614518
      5271.14      0.71586857    0.0016818250
      5276.41      0.72218024    0.0017067387
      5281.69      0.72787443    0.0017307818
      5286.97      0.73291893    0.0017556575
      5292.26      0.73770810    0.0017793868
      5297.55      0.74826598    0.0017944891
      5302.85      0.75974744    0.0018065453
      5308.15      0.77250060    0.0018118878
      5313.46      0.78921085    0.0018091930
      5318.77      0.80143800    0.0017952535
      5324.09      0.81122072    0.0017741555
      5329.42      0.81832083    0.0017528110
      5334.75      0.82783356    0.0017207235
      5340.08      0.83747435    0.0016871406
      5345.42      0.84889253    0.0016540830
      5350.77      0.86088475    0.0016170404
      5356.12      0.86964901    0.0015831961
      5361.48      0.87422339    0.0015504704
      5366.83      0.87751387    0.0015254307
      5372.20      0.87916056    0.0014993764
      5377.58      0.88204069    0.0014786559
      5382.95      0.88709875    0.0014598987
      5388.34      0.89094685    0.0014460731
      5393.72      0.89748912    0.0014354352
      5399.12      0.90655034    0.0014258476
      5404.52      0.91653453    0.0014149780
      5409.92      0.92709985    0.0014060480
      5415.33      0.93799385    0.0013961254
      5420.75      0.94677828    0.0013827119
      5426.17      0.95739159    0.0013692012
      5431.60      0.96451907    0.0013520130
      5437.03      0.97193177    0.0013349809
      5442.47      0.97729598    0.0013169262
      5447.91      0.98061643    0.0012971277
      5453.36      0.98313634    0.0012797460
      5458.81      0.98227839    0.0012642423
      5464.27      0.97887277    0.0012518247
      5469.73      0.97536911    0.0012424073
      5475.20      0.97302573    0.0012397877
      5480.68      0.97083832    0.0012437796
      5486.16      0.96988961    0.0012551817
      5491.65      0.96996351    0.0012744531
      5497.14      0.97660621    0.0012991084
      5502.64      0.98667718    0.0013327346
      5508.14      0.99910305    0.0013741318
      5513.65       1.0129235    0.0014209188
      5519.16       1.0285207    0.0014712289
      5524.68       1.0459073    0.0015218935
      5530.20       1.0629749    0.0015707490
      5535.73       1.0775493    0.0016138541
      5541.27       1.0930113    0.0016474095
      5546.81       1.1040771    0.0016649339
      5552.36       1.1094950    0.0016688217
      5557.91       1.1091290    0.0016549868
      5563.47       1.1052430    0.0016190567
      5569.04       1.0991581    0.0015717981
      5574.60       1.0886830    0.0015124525
      5580.18       1.0762668    0.0014403234
      5585.76       1.0634526    0.0013689539
      5591.35       1.0528390    0.0012922867
      5596.94       1.0439796    0.0012233943
      5602.53       1.0389900    0.0011592953
      5608.14       1.0340430    0.0010987270
      5613.75       1.0295831    0.0010484774
      5619.36       1.0276214    0.0010045842
      5624.98       1.0241573   0.00097159587
      5630.60       1.0229034   0.00094511850
      5636.23       1.0216343   0.00092761799
      5641.87       1.0191583   0.00092051126
      5647.51       1.0181321   0.00091866890
      5653.16       1.0164964   0.00092463974
      5658.82       1.0147367   0.00093603603
      5664.47       1.0115183   0.00095490602
      5670.14       1.0093828   0.00097794937
      5675.81       1.0063425    0.0010052396
      5681.48       1.0021069    0.0010398836
      5687.17      0.99809036    0.0010766314
      5692.85      0.99392046    0.0011194522
      5698.55      0.99101964    0.0011623940
      5704.25      0.98750775    0.0012070114
      5709.95      0.98447512    0.0012612504
      5715.66      0.97970011    0.0013261905
      5721.38      0.97470582    0.0014089420
      5727.10      0.97183173    0.0015083116
      5732.83      0.96512045    0.0016411442
      5738.56      0.96175106    0.0018292463
      5744.30      0.95484847    0.0021272224
      5750.04      0.94885311    0.0018210628
      5755.79      0.94697276    0.0019218383
      5761.55      0.94351880    0.0020841165
      5767.31      0.93678051    0.0022827249
      5773.08      0.92688553    0.0025050233
      5778.85      0.92059462    0.0027247365
      5784.63      0.91954487    0.0029619925
      5790.41      0.92231644    0.0029690037
      5796.21      0.92289523    0.0028953285
      5802.00      0.92094740    0.0027546080
      5807.81      0.91578779    0.0026417557
      5813.61      0.90905153    0.0025632217
      5819.43      0.90291890    0.0025534554
      5825.25      0.89588459    0.0030560622
      5831.07      0.88819345    0.0027170046
      5836.90      0.88064876    0.0025768514
      5842.74      0.87324339    0.0025581078
      5848.58      0.86598163    0.0026468392
      5854.43      0.85886745    0.0029021345
      5860.29      0.85997195    0.0027890277
      5866.15      0.86408380    0.0027922224
      5872.01      0.86867374    0.0030009700
      5877.89      0.87664519    0.0032947575
      5883.76      0.89156961    0.0036417388
      5889.65      0.91449898    0.0040355491
      5895.54      0.95464024    0.0043726882
      5901.43      0.99872299    0.0045439428
      5907.34       1.0371264    0.0042727589
      5913.24       1.0579170    0.0038131577
      5919.16       1.0673410    0.0032613701
      5925.08       1.0723247    0.0027466943
      5931.00       1.0841847    0.0022908217
      5936.93       1.1100805    0.0021193318
      5942.87       1.1384136    0.0018986914
      5948.81       1.1551404    0.0014995307
      5954.76       1.1759647    0.0012168356
      5960.72       1.1938462    0.0010122697
      5966.68       1.2063205   0.00086456384
      5972.64       1.2129353   0.00075657400
      5978.62       1.2146112   0.00067036767
      5984.60       1.2127957   0.00057366437
      5990.58       1.2087934   0.00050929484
      5996.57       1.2026004   0.00047590085
      6002.57       1.1943487   0.00047109071
      6008.57       1.1842459   0.00049126696
      6014.58       1.1734497   0.00052583070
      6020.60       1.1625247   0.00056938782
      6026.62       1.1517735   0.00062068896
      6032.65       1.1413716   0.00067154997
      6038.68       1.1307562   0.00072806006
      6044.72       1.1207371   0.00078987066
      6050.76       1.1118891   0.00087111332
      6056.81       1.1081145   0.00096465933
      6062.87       1.1187390    0.0010421548
      6068.93       1.1307818    0.0011025905
      6075.00       1.1400214    0.0011405698
      6081.08       1.1482249    0.0011629549
      6087.16       1.1545157    0.0011627069
      6093.25       1.1622093    0.0011518323
      6099.34       1.1682926    0.0011333920
      6105.44       1.1807680    0.0011141148
      6111.54       1.1919834    0.0010954047
      6117.66       1.2006064    0.0010797358
      6123.78       1.2074421    0.0010702361
      6129.90       1.2143640    0.0010671422
      6136.03       1.2198157    0.0010695970
      6142.17       1.2238566    0.0010806924
      6148.31       1.2242929    0.0010991634
      6154.46       1.2230068    0.0011225824
      6160.61       1.2201325    0.0011551794
      6166.77       1.2152759    0.0011946278
      6172.94       1.2075273    0.0012404504
      6179.11       1.1991839    0.0012887834
      6185.29       1.1903492    0.0013441368
      6191.48       1.1800489    0.0014013193
      6197.67       1.1719671    0.0014596196
      6203.87       1.1687803    0.0015159461
      6210.07       1.1736124    0.0015677199
      6216.28       1.1876856    0.0016097738
      6222.50       1.2164555    0.0016357769
      6228.72       1.2438678    0.0016492541
      6234.95       1.2689954    0.0016463902
      6241.19       1.2946857    0.0016234421
      6247.42       1.3171594    0.0015890630
      6253.67       1.3336249    0.0015394747
      6259.93       1.3461114    0.0014858742
      6266.19       1.3523087    0.0014284520
      6272.46       1.3539081    0.0013668082
      6278.73       1.3518992    0.0013126192
      6285.01       1.3453052    0.0012593205
      6291.29       1.3333398    0.0012159914
      6297.58       1.3173623    0.0011776387
      6303.88       1.3017926    0.0011492320
      6310.19       1.2854571    0.0011267534
      6316.50       1.2677073    0.0011136767
      6322.81       1.2547834    0.0011069863
      6329.14       1.2439479    0.0011061826
      6335.47       1.2357493    0.0011079100
      6341.80       1.2281178    0.0011126412
      6348.14       1.2212300    0.0011219659
      6354.49       1.2145224    0.0011301219
      6360.85       1.2091490    0.0011392551
      6367.21       1.2051632    0.0011521995
      6373.57       1.2056791    0.0011630677
      6379.95       1.2081083    0.0011750035
      6386.33       1.2125156    0.0011910047
      6392.72       1.2191054    0.0012091025
      6399.11       1.2264575    0.0012325610
      6405.51       1.2328785    0.0012591378
      6411.92       1.2410631    0.0012942247
      6418.32       1.2522392    0.0013330243
      6424.74       1.2682456    0.0013806608
      6431.17       1.2835341    0.0014305945
      6437.60       1.2971172    0.0014899027
      6444.04       1.3132294    0.0015486494
      6450.48       1.3289900    0.0016140699
      6456.94       1.3449545    0.0016752688
      6463.39       1.3575880    0.0017374276
      6469.85       1.3710373    0.0017950758
      6476.33       1.3839057    0.0018424893
      6482.80       1.3975703    0.0018868818
      6489.28       1.4107694    0.0019234059
      6495.77       1.4373760    0.0019467298
      6502.27       1.4661669    0.0019695896
      6508.77       1.4772282    0.0019883811
      6515.28       1.5154893    0.0020058129
      6521.80       1.5714090    0.0028281062
      6528.32       1.6426487    0.0028493511
      6534.85       1.7099980    0.0028860837
      6541.38       1.7445086    0.0029413159
      6547.92       1.8464464    0.0030096652
      6554.47       1.9716283    0.0030994767
      6561.03       2.1182245    0.0031983169
      6567.59       2.2521773    0.0032970066
      6574.16       2.3316987    0.0033842564
      6580.73       2.3393201    0.0034392252
      6587.31       2.2779127    0.0034633138
      6593.90       2.1308421    0.0034357511
      6600.50       1.9056240    0.0033456772
      6607.10       1.7819240    0.0031747766
      6613.70       1.6683429    0.0029607021
      6620.32       1.5780080    0.0026980219
      6626.94       1.5079427    0.0023983427
      6633.57       1.4798930    0.0013892063
      6640.20       1.4248801    0.0012723205
      6646.84       1.3758499    0.0011663433
      6653.49       1.3319028    0.0010798323
      6660.14       1.2939616    0.0010098744
      6666.80       1.2613166   0.00096625291
      6673.47       1.2311131   0.00094992299
      6680.14       1.2048914   0.00095266247
      6686.82       1.1811149   0.00097115417
      6693.51       1.1586956    0.0010050693
      6700.20       1.1371384    0.0010502819
      6706.90       1.1172635    0.0010944229
      6713.61       1.0974225    0.0011347699
      6720.32       1.0789259    0.0011647448
      6727.05       1.0625194    0.0011719248
      6733.77       1.0482011    0.0011523647
      6740.51       1.0388485    0.0011106306
      6747.25       1.0311924    0.0010416472
      6754.00       1.0252464   0.00096047411
      6760.75       1.0224831   0.00087692894
      6767.51       1.0220001   0.00079769399
      6774.28       1.0230304   0.00072751520
      6781.05       1.0260208   0.00066538853
      6787.84       1.0281111   0.00061390166
      6794.62       1.0316716   0.00057472680
      6801.42       1.0342939   0.00054971507
      6808.22       1.0368939   0.00053764022
      6815.03       1.0387520   0.00053565902
      6821.85       1.0395577   0.00054088559
      6828.67       1.0388314   0.00055101050
      6835.50       1.0374902   0.00056250833
      6842.33       1.0347012   0.00057275900
      6849.17       1.0309751   0.00057529126
      6856.02       1.0265816   0.00057717590
      6862.88       1.0211457   0.00057573958
      6869.74       1.0144687   0.00057397084
      6876.61       1.0077846   0.00056955039
      6883.49       1.0004724   0.00056572339
      6890.37      0.99344748   0.00056052517
      6897.27      0.98801791   0.00055697722
      6904.16      0.98388732   0.00055325996
      6911.07      0.98119384   0.00055153560
      6917.98      0.97869029   0.00076068148
