# starting wavelength =        3484.6000
# ending wavelength =        7294.1900
# O2 telluric scale =        0
# O2 telluric shift =        0
# H2O telluric scale =        0
# H2O telluric shift =        0
      3484.88       1.4754779     0.059256407
      3488.37       1.3001109     0.048282871
      3491.86       1.1834031     0.029524226
      3495.35       1.1174030     0.027019250
      3498.84       1.0855874     0.022457686
      3502.34       1.0763237     0.021261632
      3505.84       1.0801767     0.019915901
      3509.35       1.1081676     0.019833374
      3512.86       1.1327010     0.019748285
      3516.37       1.1589935     0.019666006
      3519.89       1.1777789     0.019586328
      3523.41       1.1909445     0.019503605
      3526.93       1.2071199     0.020155884
      3530.46       1.2220240     0.020076685
      3533.99       1.2479897     0.020000333
      3537.53       1.2773936     0.019921899
      3541.06       1.3024448     0.019143011
      3544.60       1.3282669     0.019044285
      3548.15       1.3479504     0.018948174
      3551.70       1.3577586     0.018849838
      3555.25       1.3440221     0.018754624
      3558.80       1.3132138     0.018662480
      3562.36       1.2748601     0.018566949
      3565.92       1.2250421     0.018474592
      3569.49       1.1751091     0.018384697
      3573.06       1.1394000     0.018290962
      3576.64       1.1156831     0.018199517
      3580.21       1.1033628     0.018109574
      3583.79       1.1052015     0.018021153
      3587.38       1.1130839     0.017929204
      3590.96       1.1276052     0.017839547
      3594.55       1.1420665     0.017752113
      3598.15       1.1471119     0.017661481
      3601.75       1.1483885     0.017573337
      3605.35       1.1500738     0.017487470
      3608.96       1.1444859     0.017398354
      3612.56       1.1416464     0.017311408
      3616.18       1.1469000     0.017226293
      3619.79       1.1578834     0.017139385
      3623.41       1.1763223     0.017050233
      3627.04       1.2036952     0.016963020
      3630.66       1.2301904     0.016877898
      3634.29       1.2536255     0.016789375
      3637.93       1.2701160     0.016703015
      3641.57       1.2761905     0.016618653
      3645.21       1.2744293     0.016531235
      3648.86       1.2711067     0.016445572
      3652.50       1.2665356     0.016361610
      3656.16       1.2640312     0.016274180
      3659.81       1.2641783     0.016187911
      3663.47       1.2635197     0.016102668
      3667.14       1.2647886     0.016018758
      3670.80       1.2670841     0.015931033
      3674.48       1.2647203     0.015845116
      3678.15       1.2586289     0.015761203
      3681.83       1.2527997     0.015674062
      3685.51       1.2421627     0.015588950
      3689.20       1.2305565     0.015505767
      3692.88       1.2228454     0.015419818
      3696.58       1.2185514     0.015335563
      3700.27       1.2173566     0.015252957
      3703.98       1.2212699     0.015167206
      3707.68       1.2274908     0.015082744
      3711.39       1.2372821     0.014999371
      3715.10       1.2485186     0.014917354
      3718.81       1.2598042     0.014832033
      3722.53       1.2723944     0.014748640
      3726.26       1.2813641     0.014667162
      3729.98       1.2780729     0.014583031
      3733.71       1.2636242     0.014501103
      3737.45       1.2436046     0.014421225
      3741.18       1.2221406     0.014338802
      3744.93       1.2075333     0.014258516
      3748.67       1.2022438     0.014180074
      3752.42       1.2009198     0.014098745
      3756.17       1.2061900     0.014019244
      3759.93       1.2215045     0.013452129
      3763.69       1.2338961     0.013365501
      3767.45       1.2491078     0.013278543
      3771.22       1.2564797     0.013192893
      3774.99       1.2517998     0.013107373
      3778.77       1.2411732     0.013022018
      3782.54       1.2281253     0.012938140
      3786.33       1.2128838     0.012854599
      3790.11       1.2004149     0.012771202
      3793.90       1.1887742     0.012689199
      3797.70       1.1723958     0.012607344
      3801.50       1.1572930     0.012525607
      3805.30       1.1505193     0.012445007
      3809.10       1.1517060     0.012365094
      3812.91       1.1631372     0.012285881
      3816.73       1.1817900     0.012207030
      3820.54       1.1990837     0.012129285
      3824.36       1.2137515     0.012052814
      3828.19       1.2255508     0.011976915
      3832.02       1.2319621     0.011902703
      3835.85       1.2334237     0.011828914
      3839.68       1.2327544     0.011756298
      3843.52       1.2247865     0.011685341
      3847.37       1.2003211     0.011709497
      3851.22       1.2071871     0.011620565
      3855.07       1.2229466     0.011533744
      3858.92       1.2461936     0.011447396
      3862.78       1.2741610     0.011362021
      3866.64       1.2959835     0.011278883
      3870.51       1.3052246     0.011196824
      3874.38       1.3033348     0.011115945
      3878.26       1.2953298     0.011037324
      3882.13       1.2825966     0.010959871
      3886.02       1.2643094     0.010883724
      3889.90       1.2422071     0.010809646
      3893.79       1.2224243     0.010737377
      3897.69       1.2119158     0.010664800
      3901.59       1.2086172     0.010594449
      3905.49       1.2079143     0.010183596
      3909.39       1.2107266     0.010119743
      3913.30       1.2157862     0.010056907
      3917.22       1.2164927    0.0099949769
      3921.13       1.2139080     0.010307598
      3925.06       1.2181347     0.010225967
      3928.98       1.2220051     0.010146461
      3932.91       1.2244367     0.010068353
      3936.84       1.2281002    0.0099926206
      3940.78       1.2302143    0.0099192253
      3944.72       1.2306055    0.0098476948
      3948.67       1.2295680    0.0097779592
      3952.61       1.2234780    0.0097105767
      3956.57       1.2126130    0.0093317276
      3960.52       1.2042182    0.0092713741
      3964.48       1.1957812    0.0092123207
      3968.45       1.1902625    0.0091561876
      3972.42       1.1890988    0.0091015361
      3976.39       1.1896850    0.0093642317
      3980.37       1.1945838    0.0092883394
      3984.35       1.2037980    0.0092155344
      3988.33       1.2135206    0.0091454356
      3992.32       1.2246329    0.0090778460
      3996.31       1.2345717    0.0090125810
      4000.31       1.2373380    0.0086583144
      4004.31       1.2366146    0.0086017285
      4008.31       1.2306521    0.0085469823
      4012.32       1.2206272    0.0084939639
      4016.33       1.2113380    0.0084441233
      4020.35       1.2034441    0.0083962327
      4024.37       1.1940377    0.0086183486
      4028.40       1.1908893    0.0085492788
      4032.42       1.1895634    0.0084838602
      4036.46       1.1873873    0.0084218044
      4040.50       1.1855088    0.0080908313
      4044.54       1.1863540    0.0080377884
      4048.58       1.1858742    0.0079868298
      4052.63       1.1852395    0.0079393210
      4056.68       1.1817332    0.0078940206
      4060.74       1.1715373    0.0078507932
      4064.80       1.1581702    0.0078109357
      4068.86       1.1445117    0.0079903440
      4072.93       1.1349250    0.0076716067
      4077.01       1.1357569    0.0076195996
      4081.08       1.1405880    0.0075701063
      4085.17       1.1459956    0.0075229739
      4089.25       1.1505459    0.0074795146
      4093.34       1.1576466    0.0074386394
      4097.43       1.1669038    0.0074002906
      4101.53       1.1777355    0.0073656601
      4105.63       1.1933403    0.0072848656
      4109.74       1.2032806    0.0072357022
      4113.85       1.2080564    0.0071890771
      4117.96       1.2105146    0.0071455613
      4122.08       1.2121305    0.0071046003
      4126.20       1.2130149    0.0070674802
      4130.33       1.2126240    0.0070332263
      4134.46       1.2100831    0.0070016600
      4138.59       1.1972551    0.0069308578
      4142.73       1.1883933    0.0068849089
      4146.88       1.1813512    0.0068433307
      4151.02       1.1769613    0.0068046952
      4155.18       1.1750245    0.0067689986
      4159.33       1.1750896    0.0067373487
      4163.49       1.1740994    0.0067087929
      4167.65       1.1706858    0.0064293542
      4171.82       1.1700943    0.0066119628
      4175.99       1.1707459    0.0065723647
      4180.17       1.1716988    0.0065361369
      4184.35       1.1733631    0.0065041680
      4188.54       1.1733360    0.0064756435
      4192.72       1.1698019    0.0064504773
      4196.92       1.1619204    0.0061888648
      4201.11       1.1577905    0.0061512206
      4205.31       1.1518302    0.0063327613
      4209.52       1.1479248    0.0063012752
      4213.73       1.1447697    0.0062737000
      4217.94       1.1422761    0.0062494682
      4222.16       1.1411382    0.0060129447
      4226.38       1.1411667    0.0059762624
      4230.61       1.1427597    0.0059439131
      4234.84       1.1458136    0.0061249341
      4239.08       1.1432413    0.0060989536
      4243.32       1.1393413    0.0060778090
      4247.56       1.1365003    0.0058598895
      4251.81       1.1347356    0.0058259605
      4256.06       1.1361133    0.0057964715
      4260.32       1.1407613    0.0059762981
      4264.58       1.1435641    0.0059531464
      4268.84       1.1453156    0.0059349623
      4273.11       1.1444201    0.0057299371
      4277.38       1.1427696    0.0056988836
      4281.66       1.1415036    0.0056726700
      4285.94       1.1412519    0.0056500735
      4290.23       1.1394268    0.0058349011
      4294.52       1.1405964    0.0058208408
      4298.81       1.1423679    0.0056238262
      4303.11       1.1421915    0.0055970520
      4307.42       1.1426024    0.0055745174
      4311.72       1.1454617    0.0055560281
      4316.04       1.1480580    0.0057440112
      4320.35       1.1497918    0.0055668652
      4324.67       1.1514826    0.0055398243
      4329.00       1.1502222    0.0055180938
      4333.33       1.1481234    0.0055004249
      4337.66       1.1452372    0.0054875619
      4342.00       1.1420363    0.0056803611
      4346.34       1.1335246    0.0055002080
      4350.69       1.1302303    0.0054783823
      4355.04       1.1292608    0.0054620647
      4359.39       1.1297956    0.0054497381
      4363.75       1.1330040    0.0056438033
      4368.12       1.1392864    0.0054748202
      4372.48       1.1419199    0.0054540726
      4376.86       1.1448333    0.0054390527
      4381.23       1.1466575    0.0054285440
      4385.61       1.1468395    0.0054232448
      4390.00       1.1437261    0.0054632519
      4394.39       1.1380133    0.0054433585
      4398.79       1.1312576    0.0054294442
      4403.18       1.1254594    0.0054214219
      4407.59       1.1221807    0.0054177919
      4412.00       1.1226745    0.0054620402
      4416.41       1.1235810    0.0054442253
      4420.82       1.1236403    0.0054326185
      4425.25       1.1208340    0.0054271878
      4429.67       1.1144657    0.0052848440
      4434.10       1.1086050    0.0054717524
      4438.54       1.1048297    0.0054567502
      4442.97       1.1027249    0.0054474697
      4447.42       1.1033080    0.0054445574
      4451.86       1.1088539    0.0053062174
      4456.32       1.1122420    0.0054897000
      4460.77       1.1185466    0.0054783667
      4465.24       1.1248524    0.0054727307
      4469.70       1.1306793    0.0053323370
      4474.17       1.1369821    0.0055320558
      4478.65       1.1336739    0.0055175761
      4483.12       1.1256811    0.0055103239
      4487.61       1.1143298    0.0055092424
      4492.09       1.1029465    0.0053724342
      4496.59       1.1022737    0.0055639212
      4501.08       1.1159361    0.0055535672
      4505.58       1.1360609    0.0055506356
      4510.09       1.1605082    0.0054125316
      4514.60       1.1736340    0.0054227850
      4519.12       1.1904632    0.0056037725
      4523.63       1.1970817    0.0055991510
      4528.16       1.1946254    0.0054589632
      4532.69       1.1891363    0.0054691528
      4537.22       1.1686833    0.0056576574
      4541.76       1.1479571    0.0056518616
      4546.30       1.1321902    0.0055096338
      4550.85       1.1230752    0.0055190018
      4555.40       1.1231061    0.0057150088
      4559.95       1.1261013    0.0057081879
      4564.51       1.1289079    0.0055643927
      4569.08       1.1277697    0.0055744244
      4573.65       1.1256390    0.0055901611
      4578.22       1.1239062    0.0057678727
      4582.80       1.1157739    0.0056221150
      4587.38       1.1088832    0.0056319243
      4591.97       1.1010640    0.0056485597
      4596.56       1.0898987    0.0058280646
      4601.16       1.0847065    0.0056821075
      4605.76       1.0806380    0.0056929663
      4610.37       1.0773938    0.0057107642
      4614.98       1.0787381    0.0058908045
      4619.59       1.0787507    0.0057439628
      4624.21       1.0778929    0.0057557682
      4628.84       1.0785294    0.0057751824
      4633.47       1.0785380    0.0058002824
      4638.10       1.0793181    0.0058064315
      4642.74       1.0803201    0.0058201687
      4647.38       1.0811340    0.0058416059
      4652.03       1.0833529    0.0058621169
      4656.68       1.0850727    0.0058701399
      4661.34       1.0867648    0.0058863046
      4666.00       1.0860757    0.0059216337
      4670.67       1.0833192    0.0059238039
      4675.33       1.0796966    0.0059343817
      4680.01       1.0761346    0.0059532533
      4684.69       1.0758585    0.0059801586
      4689.38       1.0779595    0.0059852870
      4694.07       1.0805336    0.0059989823
      4698.76       1.0826751    0.0058414664
      4703.46       1.0844118    0.0060384185
      4708.16       1.0849856    0.0060472741
      4712.87       1.0851563    0.0060653400
      4717.58       1.0829528    0.0060926292
      4722.30       1.0810575    0.0060961735
      4727.03       1.0785738    0.0061090221
      4731.75       1.0772852    0.0059470235
      4736.48       1.0776923    0.0061466445
      4741.22       1.0779894    0.0061556948
      4745.96       1.0781165    0.0061749001
      4750.71       1.0781891    0.0060005129
      4755.46       1.0781300    0.0062111046
      4760.22       1.0790082    0.0062316940
      4764.97       1.0820258    0.0060713204
      4769.74       1.0842024    0.0062846210
      4774.51       1.0871524    0.0062995786
      4779.29       1.0917356    0.0061347669
      4784.07       1.0959121    0.0063379072
      4788.85       1.0963961    0.0063427595
      4793.64       1.0933907    0.0061733081
      4798.43       1.0895044    0.0061649288
      4803.23       1.0832143    0.0063720125
      4808.03       1.0770632    0.0062115826
      4812.84       1.0703093    0.0061993806
      4817.66       1.0618455    0.0064022127
      4822.48       1.0518949    0.0062406470
      4827.30       1.0492601    0.0062243641
      4832.12       1.0509692    0.0064214073
      4836.96       1.0611639    0.0064243202
      4841.79       1.0833110    0.0062372564
      4846.63       1.1044094    0.0064340080
      4851.48       1.1223486    0.0064356219
      4856.33       1.1359604    0.0062481712
      4861.19       1.1411867    0.0062359789
      4866.05       1.1452971    0.0064397607
      4870.92       1.1328881    0.0062540045
      4875.79       1.1204869    0.0062416496
      4880.66       1.0950510    0.0062856597
      4885.55       1.0770148    0.0062605740
      4890.43       1.0617006    0.0062482436
      4895.32       1.0529429    0.0062908377
      4900.22       1.0504997    0.0062643234
      4905.12       1.0513668    0.0062505720
      4910.02       1.0552304    0.0062898520
      4914.94       1.0550288    0.0062623490
      4919.85       1.0538969    0.0062484394
      4924.77       1.0523764    0.0062823766
      4929.70       1.0531074    0.0062547798
      4934.62       1.0540028    0.0062400169
      4939.56       1.0561648    0.0062682294
      4944.50       1.0582667    0.0062398196
      4949.44       1.0593487    0.0062248814
      4954.39       1.0611803    0.0062456577
      4959.35       1.0604202    0.0062176219
      4964.31       1.0575605    0.0062029753
      4969.27       1.0509373    0.0062158839
      4974.24       1.0478513    0.0061888621
      4979.22       1.0457524    0.0060233858
      4984.20       1.0453098    0.0061787809
      4989.18       1.0510293    0.0061526888
      4994.17       1.0648696    0.0061726164
      4999.16       1.0730380    0.0061333343
      5004.16       1.0795581    0.0061090340
      5009.17       1.0851481    0.0061179279
      5014.18       1.0859056    0.0060812769
      5019.19       1.0818162    0.0059066234
      5024.21       1.0747441    0.0060559698
      5029.23       1.0661061    0.0060212629
      5034.26       1.0557622    0.0058493133
      5039.30       1.0437726    0.0059858372
      5044.34       1.0349772    0.0059540312
      5049.39       1.0297667    0.0057870572
      5054.43       1.0303095    0.0059125132
      5059.49       1.0305560    0.0057383201
      5064.55       1.0286451    0.0058779281
      5069.61       1.0280273    0.0058482114
      5074.68       1.0295305    0.0056954184
      5079.76       1.0322725    0.0058446010
      5084.84       1.0343152    0.0056795495
      5089.92       1.0352242    0.0056708580
      5095.01       1.0343839    0.0057915867
      5100.11       1.0317996    0.0056070855
      5105.21       1.0284656    0.0057103556
      5110.31       1.0263727    0.0055083667
      5115.42       1.0232921    0.0054743552
      5120.54       1.0207753    0.0055652753
      5125.66       1.0180798    0.0053737214
      5130.79       1.0161593    0.0054709229
      5135.92       1.0162090    0.0052782916
      5141.05       1.0162373    0.0052470984
      5146.20       1.0163114    0.0053343668
      5151.34       1.0157287    0.0051538460
      5156.49       1.0148116    0.0052491222
      5161.65       1.0141143    0.0050640580
      5166.81       1.0140983    0.0050342104
      5171.98       1.0143011    0.0049754386
      5177.15       1.0145896    0.0049396954
      5182.33       1.0151885    0.0050252632
      5187.51       1.0184413    0.0048466679
      5192.70       1.0203171    0.0048183089
      5197.89       1.0224523    0.0047553988
      5203.09       1.0224076    0.0047221286
      5208.29       1.0220534    0.0046663925
      5213.50       1.0209514    0.0046285158
      5218.72       1.0196572    0.0046033503
      5223.93       1.0169658    0.0045373363
      5229.16       1.0118727    0.0045089676
      5234.39       1.0044032    0.0044525793
      5239.62      0.99802671    0.0044208984
      5244.86      0.99187154    0.0042601637
      5250.11      0.98835975    0.0043305777
      5255.36      0.98687559    0.0043023200
      5260.61      0.98753568    0.0042277494
      5265.87      0.98988359    0.0041943560
      5271.14      0.99674337    0.0041240324
      5276.41       1.0019598    0.0040873772
      5281.69       1.0076781    0.0039249546
      5286.97       1.0129107    0.0039819167
      5292.26       1.0116781    0.0038261707
      5297.55       1.0097186    0.0038769508
      5302.85       1.0053759    0.0037268512
      5308.15       1.0020546    0.0037736665
      5313.46       1.0010632    0.0037406767
      5318.77       1.0032300    0.0036706847
      5324.09       1.0061880    0.0036335936
      5329.42       1.0116109    0.0034812921
      5334.75       1.0159412    0.0035258774
      5340.08       1.0168998    0.0033802769
      5345.42       1.0172053    0.0034210442
      5350.77       1.0123467    0.0032817494
