# starting wavelength =        1718.8623
# ending wavelength =        4694.2844
# O2 telluric scale =        0
# O2 telluric shift =        0
# H2O telluric scale =        0
# H2O telluric shift =        0
      1719.02      0.40693407     0.020544625
      1720.74      0.39677336     0.020058233
      1722.46      0.38660833     0.019571635
      1724.18      0.37642743     0.019084276
      1725.91      0.36623642     0.018596435
      1727.63      0.35603460     0.018108075
      1729.36      0.34603185     0.017627952
      1731.09      0.34269350     0.017424234
      1732.82      0.33935186     0.017220315
      1734.55      0.33600691     0.017016195
      1736.29      0.33266056     0.016811988
      1738.03      0.32930902     0.016607465
      1739.76      0.32595394     0.016402726
      1741.50      0.32186234     0.016184460
      1743.24      0.31775663     0.015965876
      1744.99      0.31364431     0.015746940
      1746.73      0.30952824     0.015527804
      1748.48      0.30541016     0.015308562
      1750.23      0.30128545     0.015088966
      1751.98      0.29741275     0.014832573
      1753.73      0.29354878     0.014574083
      1755.48      0.28968292     0.014315467
      1757.24      0.28581142     0.014056472
      1759.00      0.28193587     0.013797208
      1760.76      0.27805629     0.013537673
      1762.52      0.27609866     0.013391992
      1764.28      0.27426626     0.013253685
      1766.04      0.27243196     0.013115235
      1767.81      0.27059589     0.012976650
      1769.58      0.26875893     0.012837999
      1771.35      0.26691918     0.012699136
      1773.12      0.27160859     0.012628601
      1774.89      0.27673676     0.012562533
      1776.67      0.28186668     0.012496442
      1778.44      0.28700508     0.012430242
      1780.22      0.29214807     0.012363983
      1782.00      0.29729388     0.012297688
      1783.79      0.30706407     0.012361658
      1785.57      0.31706930     0.012432063
      1787.36      0.32708481     0.012502541
      1789.14      0.33711058     0.012573090
      1790.93      0.34714114     0.012643673
      1792.72      0.35718677     0.012714363
      1794.52      0.36159331     0.012738406
      1796.31      0.36591667     0.012761755
      1798.11      0.37024650     0.012785138
      1799.90      0.37458075     0.012808546
      1801.70      0.37891941     0.012831977
      1803.51      0.38324900     0.012856231
      1805.31      0.38725197     0.012905549
      1807.12      0.39125901     0.012954917
      1808.92      0.39527011     0.013004335
      1810.73      0.39928284     0.013053773
      1812.54      0.40330180     0.013103287
      1814.36      0.40733103     0.013155390
      1816.17      0.41141573     0.013230635
      1817.99      0.41550702     0.013306002
      1819.80      0.41960245     0.013381446
      1821.62      0.42370199     0.013456965
      1823.45      0.42780539     0.013532555
      1825.27      0.43129495     0.013581840
      1827.09      0.43199429     0.013511654
      1828.92      0.43269433     0.013441398
      1830.75      0.43339475     0.013371105
      1832.58      0.43409619     0.013300708
      1834.41      0.43479834     0.013230241
      1836.25      0.43733299     0.013205826
      1838.08      0.44462017     0.013301054
      1839.92      0.45191850     0.013396428
      1841.76      0.45922458     0.013491903
      1843.61      0.46653745     0.013587467
      1845.45      0.47385419     0.013683081
      1847.29      0.48041731     0.013767119
      1849.14      0.48579140     0.013832914
      1850.99      0.49116762     0.013898736
      1852.84      0.49655272     0.013964666
      1854.69      0.50194279     0.014030657
      1856.55      0.50733818     0.014096713
      1858.41      0.51156065     0.014159025
      1860.26      0.51464396     0.014217674
      1862.12      0.51773192     0.014276410
      1863.99      0.52082293     0.014335205
      1865.85      0.52391556     0.014394030
      1867.72      0.52701284     0.014452945
      1869.58      0.53412036     0.014590781
      1871.45      0.54343861     0.014772124
      1873.33      0.55276052     0.014953538
      1875.20      0.56209702     0.015135236
      1877.07      0.57144325     0.015317124
      1878.95      0.58079861     0.015499189
      1880.83      0.58564669     0.015565117
      1882.71      0.58935833     0.015601680
      1884.59      0.59307381     0.015638282
      1886.48      0.59679316     0.015674922
      1888.37      0.60051395     0.015711576
      1890.25      0.60424075     0.015748289
      1892.15      0.60992079     0.015811826
      1894.04      0.61566711     0.015876259
      1895.93      0.62141639     0.015940725
      1897.83      0.62717420     0.016005287
      1899.73      0.63293794     0.016069916
      1901.62      0.63794733     0.016125173
      1903.53      0.63901911     0.016131516
      1905.43      0.64009198     0.016137866
      1907.34      0.64116588     0.016144222
      1909.24      0.64224027     0.016150581
      1911.15      0.64331637     0.016156950
      1913.06      0.64289176     0.016171931
      1914.98      0.63988038     0.016201747
      1916.89      0.63686766     0.016231576
      1918.81      0.63385032     0.016261451
      1920.73      0.63082991     0.016291356
      1922.65      0.62780663     0.016321290
      1924.57      0.62546533     0.016239194
      1926.50      0.62359021     0.016079970
      1928.42      0.62171318     0.015920585
      1930.35      0.61983437     0.015761048
      1932.28      0.61795462     0.015601430
      1934.21      0.61607188     0.015441560
      1936.15      0.61056924     0.015265901
      1938.08      0.60438613     0.015087234
      1940.02      0.59819326     0.014908286
      1941.96      0.59199455     0.014729168
      1943.91      0.58578921     0.014549859
      1945.85      0.57948983     0.014371332
      1947.79      0.57244316     0.014200746
      1949.74      0.56538543     0.014029892
      1951.69      0.55832106     0.013858878
      1953.64      0.55125360     0.013687789
      1955.60      0.54417464     0.013516421
      1957.55      0.53802131     0.013360216
      1959.51      0.53333273     0.013228029
      1961.47      0.52864181     0.013095777
      1963.43      0.52394387     0.012963327
      1965.40      0.51924097     0.012830737
      1967.36      0.51453368     0.012698023
      1969.33      0.51088590     0.012593930
      1971.30      0.50770156     0.012502347
      1973.27      0.50451406     0.012410674
      1975.24      0.50132519     0.012318961
      1977.22      0.49813118     0.012227101
      1979.20      0.49501819     0.012136780
      1981.18      0.49809124     0.012166162
      1983.16      0.50116733     0.012195573
      1985.14      0.50424475     0.012224997
      1987.12      0.50732690     0.012254466
      1989.11      0.51041227     0.012283966
      1991.10      0.51516423     0.012340272
      1993.09      0.52299978     0.012446162
      1995.09      0.53084302     0.012552156
      1997.08      0.53869443     0.012658261
      1999.08      0.54654968     0.012764417
      2001.08      0.55441645     0.012870730
      2003.08      0.56142542     0.012987223
      2005.08      0.56808379     0.013107988
      2007.09      0.57474539     0.013228811
      2009.09      0.58141714     0.013349819
      2011.10      0.58809579     0.013470952
      2013.11      0.59485327     0.013590174
      2015.13      0.60242196     0.013688919
      2017.14      0.60999798     0.013787760
      2019.16      0.61758135     0.013886696
      2021.18      0.62517251     0.013985735
      2023.20      0.63276735     0.014084821
      2025.22      0.64082740     0.014215774
      2027.25      0.64937089     0.014380078
      2029.28      0.65791798     0.014544451
      2031.31      0.66647845     0.014709082
      2033.34      0.67504768     0.014873881
      2035.37      0.68362515     0.015038838
      2037.41      0.68992183     0.015127162
      2039.44      0.69598489     0.015207451
      2041.48      0.70205377     0.015287816
      2043.53      0.70812882     0.015368264
      2045.57      0.71420641     0.015448745
      2047.61      0.71958139     0.015524676
      2049.66      0.72358251     0.015591622
      2051.71      0.72758530     0.015658596
      2053.76      0.73159477     0.015725681
      2055.82      0.73560805     0.015792831
      2057.87      0.73962515     0.015860044
      2059.93      0.74154608     0.015880371
      2061.99      0.74292870     0.015888655
      2064.05      0.74431362     0.015896954
      2066.12      0.74569985     0.015905260
      2068.18      0.74708657     0.015913569
      2070.25      0.74794339     0.015916938
      2072.32      0.74734446     0.015906754
      2074.39      0.74674503     0.015896561
      2076.47      0.74614525     0.015886362
      2078.55      0.74554456     0.015876147
      2080.62      0.74494329     0.015865923
      2082.71      0.74450760     0.015855902
      2084.79      0.74412364     0.015845942
      2086.87      0.74373909     0.015835967
      2088.96      0.74335418     0.015825983
      2091.05      0.74296887     0.015815988
      2093.14      0.74221471     0.015798041
      2095.23      0.74045410     0.015758394
      2097.33      0.73869164     0.015718705
      2099.43      0.73692754     0.015678980
      2101.52      0.73516262     0.015639236
      2103.63      0.73339482     0.015599427
      2105.73      0.73263133     0.015572917
      2107.84      0.73213075     0.015549884
      2109.94      0.73162941     0.015526817
      2112.05      0.73112754     0.015503726
      2114.17      0.73062516     0.015480611
      2116.28      0.73004621     0.015460849
      2118.40      0.72931625     0.015447658
      2120.52      0.72858554     0.015434453
      2122.64      0.72785416     0.015421236
      2124.76      0.72712243     0.015408013
      2126.88      0.72638953     0.015394769
      2129.01      0.72380798     0.015342588
      2131.14      0.72102767     0.015286224
      2133.27      0.71824608     0.015229833
      2135.40      0.71546035     0.015173358
      2137.54      0.71267175     0.015116826
      2139.68      0.71100748     0.015095645
      2141.82      0.71054971     0.015112371
      2143.96      0.71009116     0.015129125
      2146.10      0.70963219     0.015145894
      2148.25      0.70917296     0.015162673
      2150.40      0.70857599     0.015173738
      2152.55      0.70644797     0.015120733
      2154.70      0.70431754     0.015067668
      2156.86      0.70218518     0.015014555
      2159.01      0.70005185     0.014961417
      2161.17      0.69791514     0.014908196
      2163.33      0.69719191     0.014875005
      2165.50      0.69707975     0.014850474
      2167.66      0.69696742     0.014825903
      2169.83      0.69685498     0.014801311
      2172.00      0.69674243     0.014776693
      2174.17      0.69844234     0.014793012
      2176.35      0.70374975     0.014890803
      2178.52      0.70906253     0.014988693
      2180.70      0.71438068     0.015086681
      2182.88      0.71970121     0.015184713
      2185.07      0.72503008     0.015282899
      2187.25      0.72549777     0.015291227
      2189.44      0.72590444     0.015298427
      2191.63      0.72631174     0.015305638
      2193.82      0.72671940     0.015312856
      2196.01      0.72712752     0.015320081
      2198.21      0.72423740     0.015266102
      2200.41      0.71962130     0.015180096
      2202.61      0.71499752     0.015093946
      2204.81      0.71036963     0.015007719
      2207.02      0.70573917     0.014921445
      2209.22      0.70172656     0.014843746
      2211.43      0.69887562     0.014782215
      2213.64      0.69602152     0.014720617
      2215.86      0.69316616     0.014658991
      2218.07      0.69030639     0.014597269
      2220.29      0.68733215     0.014533650
      2222.51      0.68240327     0.014437860
      2224.73      0.67747223     0.014342027
      2226.96      0.67253359     0.014246047
      2229.19      0.66758954     0.014149961
      2231.42      0.66264387     0.014053844
      2233.65      0.66038267     0.014007163
      2235.88      0.65888685     0.013974575
      2238.12      0.65738938     0.013941950
      2240.36      0.65589045     0.013909294
      2242.60      0.65439070     0.013876620
      2244.84      0.65472690     0.013882874
      2247.08      0.65674340     0.013924755
      2249.33      0.65876055     0.013966650
      2251.58      0.66078099     0.014008613
      2253.83      0.66280363     0.014050622
      2256.09      0.66493207     0.014095822
      2258.34      0.66732097     0.014148909
      2260.60      0.66971350     0.014202076
      2262.86      0.67210835     0.014255295
      2265.12      0.67450552     0.014308566
      2267.39      0.67678244     0.014360547
      2269.66      0.67731144     0.014393619
      2271.93      0.67784096     0.014426723
      2274.20      0.67837076     0.014459844
      2276.47      0.67890136     0.014493015
      2278.75      0.67943247     0.014526219
      2281.03      0.68437741     0.014643238
      2283.31      0.69005123     0.014774119
      2285.59      0.69572748     0.014905055
      2287.88      0.70141283     0.015036202
      2290.17      0.70710365     0.015167476
      2292.46      0.71447794     0.015296626
      2294.75      0.72266927     0.015424940
      2297.04      0.73086845     0.015553377
      2299.34      0.73907548     0.015681937
      2301.64      0.74728687     0.015810565
      2303.94      0.75290927     0.015904604
      2306.25      0.75601886     0.015965064
      2308.55      0.75913141     0.016025582
      2310.86      0.76224561     0.016086132
      2313.17      0.76536443     0.016146772
      2315.49      0.76854557     0.016210112
      2317.80      0.77183602     0.016278238
      2320.12      0.77512821     0.016346400
      2322.44      0.77842526     0.016414662
      2324.76      0.78172542     0.016482989
      2327.09      0.78424963     0.016536410
      2329.41      0.78414724     0.016539363
      2331.74      0.78404470     0.016542321
      2334.08      0.78394207     0.016545281
      2336.41      0.78383938     0.016548243
      2338.75      0.78405163     0.016557913
      2341.08      0.78665999     0.016618569
      2343.43      0.78927107     0.016679289
      2345.77      0.79188324     0.016740034
      2348.12      0.79449976     0.016800879
      2350.46      0.79720789     0.016863643
      2352.81      0.80461136     0.017024458
      2355.17      0.81201713     0.017185322
      2357.52      0.81943520     0.017346454
      2359.88      0.82686019     0.017507736
      2362.24      0.83429287     0.017669185
      2364.60      0.84387911     0.017858478
      2366.97      0.85362004     0.018049877
      2369.33      0.86337001     0.018241453
      2371.70      0.87312904     0.018433208
      2374.08      0.88289310     0.018625061
      2376.45      0.88723322     0.018715173
      2378.83      0.89084552     0.018791639
      2381.20      0.89445931     0.018868136
      2383.59      0.89807903     0.018944759
      2385.97      0.90170209     0.019021453
      2388.36      0.90486931     0.019099008
      2390.75      0.90795131     0.019176804
      2393.14      0.91103457     0.019254631
      2395.53      0.91412256     0.019332578
      2397.93      0.91721369     0.019410604
      2400.32      0.92287844     0.019516354
      2402.72      0.92914735     0.019628682
      2405.13      0.93542201     0.019741112
      2407.53      0.94170367     0.019853668
      2409.94      0.94798725     0.019966258
      2412.35      0.95366500     0.020078756
      2414.76      0.95919812     0.020191300
      2417.18      0.96473684     0.020303958
      2419.59      0.97027779     0.020416661
      2422.01      0.97582771     0.020529547
      2424.44      0.97275570     0.020492058
      2426.86      0.96770312     0.020420031
      2429.29      0.96264290     0.020347896
      2431.72      0.95757708     0.020275680
      2434.15      0.95250668     0.020203399
      2436.58      0.94359615     0.020089664
      2439.02      0.93397201     0.019968219
      2441.46      0.92433340     0.019846592
      2443.90      0.91468515     0.019724843
      2446.34      0.90503207     0.019603033
      2448.79      0.90251811     0.019488297
      2451.24      0.90090924     0.019374367
      2453.69      0.89929877     0.019260323
      2456.14      0.89768750     0.019146223
      2458.60      0.89607382     0.019031952
      2461.06      0.89273101     0.018967202
      2463.52      0.88929070     0.018905077
      2465.98      0.88584902     0.018842927
      2468.45      0.88240223     0.018780685
      2470.92      0.87896378     0.018718642
      2473.39      0.87591154     0.018665149
      2475.86      0.87285447     0.018611570
      2478.34      0.86979438     0.018557939
      2480.82      0.86673097     0.018504250
      2483.30      0.86407107     0.018457877
      2485.78      0.86424989     0.018462968
      2488.27      0.86442900     0.018468068
      2490.76      0.86460828     0.018473172
      2493.25      0.86478764     0.018478278
      2495.74      0.86574199     0.018508439
      2498.24      0.86915567     0.018618108
      2500.74      0.87257269     0.018727884
      2503.24      0.87599104     0.018837704
      2505.74      0.87941474     0.018947695
      2508.25      0.88119582     0.019008106
      2510.75      0.88019186     0.018984449
      2513.26      0.87918732     0.018960778
      2515.78      0.87818131     0.018937072
      2518.29      0.87717432     0.018913344
      2520.81      0.88010028     0.018953339
      2523.33      0.88667544     0.019052454
      2525.86      0.89325698     0.019151666
      2528.38      0.89984552     0.019250983
      2530.91      0.90644106     0.019350405
      2533.44      0.91116684     0.019443151
      2535.98      0.91503377     0.019532944
      2538.51      0.91890480     0.019622832
      2541.05      0.92277732     0.019712755
      2543.59      0.92665580     0.019802816
      2546.13      0.94003306     0.020059544
      2548.68      0.95487577     0.020342005
      2551.23      0.96972560     0.020624602
      2553.78      0.98459819     0.020907632
      2556.34      0.99906556     0.021184385
      2558.89       1.0077581     0.021371041
      2561.45       1.0164541     0.021557768
      2564.01       1.0251641     0.021744798
      2566.58       1.0338824     0.021932007
      2569.14       1.0393019     0.022042275
      2571.71       1.0363676     0.021957735
      2574.28       1.0334285     0.021873060
      2576.86       1.0304866     0.021788303
      2579.44       1.0275417     0.021703459
      2582.01       1.0233603     0.021613547
      2584.60       1.0180247     0.021518826
      2587.18       1.0126840     0.021424016
      2589.77       1.0073404     0.021329152
      2592.36       1.0019891     0.021234154
      2594.95      0.98688082     0.020986041
      2597.55      0.96882977     0.020691741
      2600.14      0.95077194     0.020397331
      2602.74      0.93268354     0.020102423
      2605.35      0.91499786     0.019811729
      2607.95      0.90867399     0.019642225
      2610.56      0.90234775     0.019472657
      2613.17      0.89601145     0.019302820
      2615.79      0.88966862     0.019132807
      2618.40      0.88312931     0.018976677
      2621.02      0.87617684     0.018850690
      2623.64      0.86921335     0.018724503
      2626.26      0.86224338     0.018598198
      2628.89      0.85526562     0.018471753
      2631.52      0.84704228     0.018304618
      2634.15      0.83803604     0.018112035
      2636.79      0.82901978     0.017919238
      2639.42      0.82000017     0.017726370
