# starting wavelength =        2889.3905
# ending wavelength =        8215.8194
# O2 telluric scale =        1.0144932
# O2 telluric shift =       -4.7564636
# H2O telluric scale =        0
# H2O telluric shift =        0
      2890.76      0.86733835      0.13142592
      2893.65      0.74463003      0.11201499
      2896.54      0.69114003     0.094245061
      2899.44      0.65349597     0.080485581
      2902.34      0.64397844     0.069882670
      2905.24      0.67170457     0.061596089
      2908.15      0.69646769     0.054511629
      2911.06      0.73112422     0.049342839
      2913.97      0.77765992     0.045192062
      2916.88      0.84076716     0.041845992
      2919.80      0.91597301     0.039117099
      2922.72      0.98918156     0.037121453
      2925.64       1.0747409     0.035250903
      2928.57       1.1608150     0.033685429
      2931.50       1.2085873     0.032373823
      2934.43       1.2581953     0.031270124
      2937.36       1.3203619     0.030341524
      2940.30       1.3631071     0.029639054
      2943.24       1.3905653     0.028988375
      2946.18       1.4084444     0.028438209
      2949.13       1.4354744     0.028011359
      2952.08       1.4829396     0.027782292
      2955.03       1.5082134     0.027653777
      2957.99       1.5428980     0.027598697
      2960.94       1.5756172     0.027508539
      2963.90       1.6092916     0.027820028
      2966.87       1.6121230     0.028049069
      2969.84       1.6319960     0.027942931
      2972.81       1.6556656     0.027846422
      2975.78       1.6567962     0.027892504
      2978.76       1.6497730     0.028001754
      2981.73       1.6487932     0.028170095
      2984.72       1.6360193     0.028303092
      2987.70       1.6174370     0.028586976
      2990.69       1.5892430     0.028944926
      2993.68       1.5506420     0.029390341
      2996.67       1.5322724     0.029717059
      2999.67       1.5073160     0.030210134
      3002.67       1.4817823     0.030751443
      3005.67       1.4505834     0.031330454
      3008.68       1.4390682     0.031782406
      3011.69       1.4113286     0.032457926
      3014.70       1.3872946     0.033222602
      3017.71       1.3608794     0.034095031
      3020.73       1.2955065     0.035042411
      3023.75       1.2710513     0.036291335
      3026.78       1.2857587     0.037325320
      3029.80       1.2831274     0.038341669
      3032.83       1.2785435     0.039319873
      3035.87       1.2629735     0.040194099
      3038.90       1.2453087     0.040891996
      3041.94       1.2212605     0.041087392
      3044.98       1.1711665     0.041287475
      3048.03       1.0960737     0.041190712
      3051.08       1.0254391     0.040796033
      3054.13      0.97056944     0.040125459
      3057.18      0.91453975     0.039206351
      3060.24      0.89606559     0.037995546
      3063.30      0.85460103     0.036786003
      3066.36      0.82342564     0.035514676
      3069.43      0.83303834     0.034240263
      3072.50      0.83847799     0.033006314
      3075.57      0.83474818     0.031839582
      3078.65      0.84154911     0.030768974
      3081.73      0.84504443     0.029848528
      3084.81      0.85911131     0.028932674
      3087.89      0.86544478     0.028145795
      3090.98      0.87295586     0.027326449
      3094.07      0.90532948     0.026610846
      3097.17      0.94361309     0.026004873
      3100.26      0.98585625     0.025510414
      3103.36       1.0105328     0.025123925
      3106.47       1.0404629     0.024837062
      3109.58       1.0701209     0.024678023
      3112.68       1.0872533     0.024593901
      3115.80       1.1035856     0.024512324
      3118.91       1.1184248     0.024533572
      3122.03       1.1466060     0.024525233
      3125.15       1.1628479     0.024459507
      3128.28       1.1798068     0.024342557
      3131.41       1.1948511     0.024181229
      3134.54       1.1918118     0.023969508
      3137.67       1.2016808     0.023699569
      3140.81       1.2250014     0.023398595
      3143.95       1.2345021     0.023096859
      3147.10       1.2384491     0.022716144
      3150.24       1.2328440     0.022520097
      3153.39       1.2208371     0.022418480
      3156.55       1.2147548     0.022375536
      3159.70       1.2222003     0.022393811
      3162.86       1.2259027     0.022473005
      3166.03       1.2271281     0.022619127
      3169.19       1.2216349     0.022800960
      3172.36       1.2153403     0.023086534
      3175.54       1.2308218     0.023434090
      3178.71       1.2450110     0.023834040
      3181.89       1.2416790     0.024280815
      3185.07       1.2320814     0.024764743
      3188.26       1.2397187     0.025273655
      3191.45       1.2554650     0.025767707
      3194.64       1.2649741     0.026232900
      3197.83       1.2793419     0.026637374
      3201.03       1.2988929     0.026947177
      3204.23       1.3176954     0.027130248
      3207.44       1.3283810     0.027011675
      3210.64       1.3138836     0.026875523
      3213.85       1.3193853     0.026657308
      3217.07       1.3561455     0.026352747
      3220.28       1.3596716     0.025768306
      3223.51       1.3498941     0.025237915
      3226.73       1.3185884     0.024617054
      3229.96       1.2731264     0.023925747
      3233.19       1.2367002     0.023189247
      3236.42       1.2335947     0.022257796
      3239.66       1.2057123     0.021486175
      3242.90       1.1879437     0.020723425
      3246.14       1.1798268     0.019928786
      3249.39       1.1648359     0.019093400
      3252.64       1.1653165     0.018424311
      3255.89       1.1643165     0.017798212
      3259.14       1.1627632     0.017219404
      3262.40       1.1830848     0.016563769
      3265.67       1.1911913     0.016097850
      3268.93       1.1901549     0.015686026
      3272.20       1.1862750     0.015273090
      3275.47       1.1818131     0.014987355
      3278.75       1.1784516     0.014767023
      3282.03       1.1855075     0.014612218
      3285.31       1.1868612     0.014469315
      3288.60       1.1819598     0.014421718
      3291.88       1.1792896     0.014418651
      3295.18       1.1754464     0.014440941
      3298.47       1.1804584     0.014515216
      3301.77       1.1872461     0.014652835
      3305.07       1.1837261     0.014774836
      3308.38       1.1846582     0.014915352
      3311.69       1.1992597     0.015063478
      3315.00       1.2092627     0.015178425
      3318.31       1.2158645     0.015323479
      3321.63       1.2259851     0.015529231
      3324.95       1.2233379     0.015616465
      3328.28       1.2149736     0.015729108
      3331.61       1.2073603     0.015831769
      3334.94       1.1970333     0.015894845
      3338.27       1.1964436     0.016042906
      3341.61       1.2095101     0.016111535
      3344.95       1.2135185     0.016214064
      3348.30       1.2016548     0.016299884
      3351.65       1.1952554     0.016319491
      3355.00       1.1915746     0.016415933
      3358.35       1.1921174     0.016429547
      3361.71       1.1972931     0.016369094
      3365.07       1.2006548     0.016338754
      3368.44       1.2010586     0.016277115
      3371.81       1.2087601     0.016210446
      3375.18       1.2101039     0.016063507
      3378.56       1.2132265     0.015972634
      3381.94       1.2238989     0.015917836
      3385.32       1.2360829     0.015751543
      3388.70       1.2442426     0.015651636
      3392.09       1.2443546     0.015506479
      3395.48       1.2404354     0.015440108
      3398.88       1.2365278     0.015309795
      3402.28       1.2363856     0.015238604
      3405.68       1.2383723     0.015133928
      3409.09       1.2310609     0.015133223
      3412.49       1.2245778     0.015113839
      3415.91       1.2080527     0.015074816
      3419.32       1.1882822     0.015132683
      3422.74       1.1757909     0.015123154
      3426.17       1.1706668     0.015155098
      3429.59       1.1668570     0.015211417
      3433.02       1.1622233     0.015266753
      3436.45       1.1574319     0.015283904
      3439.89       1.1570466     0.015412473
      3443.33       1.1583269     0.015417986
      3446.78       1.1534673     0.015462475
      3450.22       1.1385124     0.015500961
      3453.67       1.1280504     0.015503735
      3457.13       1.1186082     0.015416882
      3460.58       1.1061646     0.015368031
      3464.04       1.0931865     0.015152866
      3467.51       1.0706321     0.014859228
      3470.98       1.0653362     0.014634339
      3474.45       1.0615248     0.014335196
      3477.92       1.0549729     0.014134500
      3481.40       1.0497635     0.013866089
      3484.88       1.0468139     0.013627380
      3488.37       1.0426229     0.013295305
      3491.86       1.0363336     0.013004087
      3495.35       1.0278853     0.012599222
      3498.84       1.0203860     0.012164110
      3502.34       1.0273591     0.011761052
      3505.84       1.0404962     0.011228427
      3509.35       1.0507084     0.010812071
      3512.86       1.0619797     0.010378158
      3516.37       1.0728190    0.0099996931
      3519.89       1.0790506    0.0097723677
      3523.41       1.0773239    0.0095822634
      3526.93       1.0828279    0.0095109099
      3530.46       1.0971040    0.0094996434
      3533.99       1.1075701    0.0095414780
      3537.53       1.1169166    0.0096413077
      3541.06       1.1261247    0.0097630620
      3544.60       1.1325031    0.0098738701
      3548.15       1.1452984     0.010076001
      3551.70       1.1585570     0.010183644
      3555.25       1.1686748     0.010326513
      3558.80       1.1816677     0.010408526
      3562.36       1.1926343     0.010473579
      3565.92       1.1929656     0.010467123
      3569.49       1.1965482     0.010487082
      3573.06       1.2051231     0.010409672
      3576.64       1.2167913     0.010336326
      3580.21       1.2246727     0.010279728
      3583.79       1.2247300     0.010203310
      3587.38       1.2271253     0.010101020
      3590.96       1.2382517     0.010016377
      3594.55       1.2445995    0.0098789893
      3598.15       1.2397808    0.0097227805
      3601.75       1.2385889    0.0095361094
      3605.35       1.2379313    0.0094089398
      3608.96       1.2394575    0.0092224821
      3612.56       1.2356100    0.0090982096
      3616.18       1.2244667    0.0090652057
      3619.79       1.2141019    0.0090204307
      3623.41       1.2060396    0.0090660992
      3627.04       1.2016113    0.0091318158
      3630.66       1.1976664    0.0092837727
      3634.29       1.1857335    0.0093947337
      3637.93       1.1782899    0.0095627111
      3641.57       1.1790139    0.0097417577
      3645.21       1.1774251    0.0099169173
      3648.86       1.1738576     0.010106771
      3652.50       1.1691051     0.010315504
      3656.16       1.1657097     0.010564117
      3659.81       1.1594565     0.010812165
      3663.47       1.1596795     0.011014129
      3667.14       1.1761412     0.011293322
      3670.80       1.1866915     0.011574720
      3674.48       1.1905257     0.011927240
      3678.15       1.2045083     0.012162439
      3681.83       1.2249426     0.012262788
      3685.51       1.2428518     0.012345164
      3689.20       1.2575412     0.012237632
      3692.88       1.2691239     0.011981317
      3696.58       1.2817415     0.011654041
      3700.27       1.2876015     0.011280657
      3703.98       1.3004322     0.010993062
      3707.68       1.3054964     0.010865426
      3711.39       1.3127591     0.010751032
      3715.10       1.3249239     0.010721560
      3718.81       1.3317914     0.010751313
      3722.53       1.3363461     0.010849119
      3726.26       1.3420107     0.010979539
      3729.98       1.3528266     0.011210481
      3733.71       1.3609885     0.011530072
      3737.45       1.3526559     0.011864616
      3741.18       1.3373627     0.012346069
      3744.93       1.3287743     0.013295721
      3748.67       1.3124256     0.013768386
      3752.42       1.2833962     0.014326168
      3756.17       1.2481957     0.014858596
      3759.93       1.2151909     0.015341780
      3763.69       1.1958776     0.015650891
      3767.45       1.1782743     0.015987475
      3771.22       1.1567296     0.016191809
      3774.99       1.1270417     0.016249476
      3778.77       1.1008831     0.016152504
      3782.54       1.0880857     0.016039706
      3786.33       1.0823708     0.015924667
      3790.11       1.0713103     0.015689706
      3793.90       1.0651915     0.015676099
      3797.70       1.0504890     0.015539204
      3801.50       1.0518977     0.015418094
      3805.30       1.0592843     0.015415648
      3809.10       1.0777648     0.015598179
      3812.91       1.0855671     0.015917225
      3816.73       1.0889317     0.016595934
      3820.54       1.1051192     0.016565419
      3824.36       1.1244327     0.016661027
      3828.19       1.1421195     0.017014910
      3832.02       1.1528296     0.017311876
      3835.85       1.1617917     0.017642818
      3839.68       1.1791224     0.017958701
      3843.52       1.1965188     0.018251043
      3847.37       1.1988478     0.018470597
      3851.22       1.2194039     0.018703606
      3855.07       1.2345706     0.018852249
      3858.92       1.2492310     0.019043972
      3862.78       1.2546692     0.019175613
      3866.64       1.2537799     0.019365552
      3870.51       1.2510070     0.019543523
      3874.38       1.2509990     0.019564350
      3878.26       1.2507274     0.019475342
      3882.13       1.2690309     0.019259402
      3886.02       1.2793007     0.018935764
      3889.90       1.2846456     0.018756300
      3893.79       1.2873703     0.018575832
      3897.69       1.3032491     0.017591187
      3901.59       1.3308875     0.016427145
      3905.49       1.3455505     0.015510942
      3909.39       1.3509856     0.014779560
      3913.30       1.3549485     0.014256666
      3917.22       1.3661732     0.013988863
      3921.13       1.3709968     0.013871746
      3925.06       1.3721632     0.013857810
      3928.98       1.3806943     0.013934186
      3932.91       1.3879371     0.014039186
      3936.84       1.3937805     0.014234640
      3940.78       1.3992971     0.014455208
      3944.72       1.4052683     0.014682304
      3948.67       1.4010334     0.014576952
      3952.61       1.4048671     0.014570574
      3956.57       1.4072249     0.014573204
      3960.52       1.4106894     0.014615664
      3964.48       1.4064087     0.014646722
      3968.45       1.4257882     0.014878891
      3972.42       1.4402536     0.014944356
      3976.39       1.4335253     0.014961403
      3980.37       1.4217384     0.014966089
      3984.35       1.3977839     0.014923477
      3988.33       1.3762102     0.014829482
      3992.32       1.3556471     0.014643952
      3996.31       1.3496346     0.014485421
      4000.31       1.3397532     0.014305061
      4004.31       1.3303797     0.014099094
      4008.31       1.3224997     0.013871715
      4012.32       1.3065879     0.013570876
      4016.33       1.2906886     0.013393604
      4020.35       1.2668422     0.013282233
      4024.37       1.2431681     0.013126324
      4028.40       1.2393191     0.013033850
      4032.42       1.2393992     0.012943399
      4036.46       1.2363865     0.012866240
      4040.50       1.2385834     0.012781008
      4044.54       1.2424397     0.012782823
      4048.58       1.2476579     0.012777270
      4052.63       1.2552948     0.012748892
      4056.68       1.2588785     0.012843070
      4060.74       1.2572774     0.012938599
      4064.80       1.2592418     0.013058018
      4068.86       1.2598172     0.013183217
      4072.93       1.2624840     0.013402753
      4077.01       1.2659770     0.013687178
      4081.08       1.2722729     0.013988070
      4085.17       1.2854613     0.014266530
      4089.25       1.2813201     0.014437514
      4093.34       1.2706515     0.014631635
      4097.43       1.2664512     0.014633759
      4101.53       1.2715183     0.014468142
      4105.63       1.2720541     0.014314332
      4109.74       1.2744296     0.014132342
      4113.85       1.2658183     0.013871920
      4117.96       1.2579373     0.013690129
      4122.08       1.2469601     0.013430378
      4126.20       1.2476952     0.013237231
      4130.33       1.2416111     0.013049797
      4134.46       1.2284309     0.012802253
      4138.59       1.2187753     0.012601218
      4142.73       1.2102969     0.012318177
      4146.88       1.2022582     0.012063784
      4151.02       1.1978375     0.011813217
      4155.18       1.1899639     0.011668487
      4159.33       1.1754094     0.011545938
      4163.49       1.1783538     0.011347833
      4167.65       1.1807306     0.011160919
      4171.82       1.1804284     0.010877080
      4175.99       1.1754327     0.010590520
      4180.17       1.1716235     0.010138526
      4184.35       1.1650213    0.0097043881
      4188.54       1.1686426    0.0091621784
      4192.72       1.1678612    0.0087269939
      4196.92       1.1723183    0.0082407958
      4201.11       1.1747502    0.0078861677
      4205.31       1.1791300    0.0075494140
      4209.52       1.1773895    0.0073186282
      4213.73       1.1755076    0.0071068109
      4217.94       1.1766447    0.0069452858
      4222.16       1.1815321    0.0067928153
      4226.38       1.1815678    0.0067031718
      4230.61       1.1773658    0.0066328984
      4234.84       1.1753706    0.0066252201
      4239.08       1.1759252    0.0066474782
      4243.32       1.1753960    0.0067088146
      4247.56       1.1720139    0.0068514937
      4251.81       1.1705531    0.0069931337
      4256.06       1.1710088    0.0071688172
      4260.32       1.1759477    0.0074012837
      4264.58       1.1778592    0.0076038997
      4268.84       1.1753501    0.0078573885
      4273.11       1.1726262    0.0080876444
      4277.38       1.1665735    0.0082986263
      4281.66       1.1630271    0.0085401546
      4285.94       1.1686476    0.0087252897
      4290.23       1.1735044    0.0088851362
      4294.52       1.1739287    0.0090667754
      4298.81       1.1697678    0.0092003183
      4303.11       1.1676519    0.0093357062
      4307.42       1.1665373    0.0094320897
      4311.72       1.1620681    0.0095677818
      4316.04       1.1527108    0.0096888744
      4320.35       1.1383051    0.0098191067
      4324.67       1.1292440    0.0099699423
      4329.00       1.1329751    0.0099696452
      4333.33       1.1090236    0.0099106410
      4337.66       1.0939843    0.0097687563
      4342.00       1.0762452    0.0095026637
      4346.34       1.0659286    0.0091576237
      4350.69       1.0659582    0.0088684276
      4355.04       1.0673485    0.0084936460
      4359.39       1.0568188    0.0081567895
      4363.75       1.0567344    0.0079050545
      4368.12       1.0558731    0.0076237825
      4372.48       1.0557843    0.0073770040
      4376.86       1.0510682    0.0071283147
      4381.23       1.0452287    0.0069329500
      4385.61       1.0432489    0.0066982862
      4390.00       1.0459526    0.0064584592
      4394.39       1.0434271    0.0062372326
      4398.79       1.0446528    0.0060772176
      4403.18       1.0550864    0.0059262931
      4407.59       1.0631962    0.0058152938
      4412.00       1.0684153    0.0057698858
      4416.41       1.0739035    0.0057702293
      4420.82       1.0868048    0.0057968683
      4425.25       1.1012227    0.0058391105
      4429.67       1.1135149    0.0058747709
      4434.10       1.1324412    0.0059111754
