# starting wavelength =        3699.3100
# ending wavelength =        7624.0600
# O2 telluric scale =        0
# O2 telluric shift =        0
# H2O telluric scale =        0
# H2O telluric shift =        0
      3700.27      0.36185169     0.022177905
      3703.98      0.35731980     0.018792382
      3707.68      0.35009153     0.016077729
      3711.39      0.34618125     0.013537050
      3715.10      0.34379214     0.011917147
      3718.81      0.34110865     0.010651814
      3722.53      0.33692677    0.0098510796
      3726.26      0.33261066    0.0090463927
      3729.98      0.33236878    0.0084255454
      3733.71      0.32753678    0.0078622132
      3737.45      0.32507665    0.0075043898
      3741.18      0.32668756    0.0072237587
      3744.93      0.32418537    0.0070065062
      3748.67      0.32636908    0.0068140110
      3752.42      0.32916907    0.0066568863
      3756.17      0.33536880    0.0064848152
      3759.93      0.33979654    0.0063774844
      3763.69      0.34750270    0.0062863057
      3767.45      0.35232966    0.0061712093
      3771.22      0.36123088    0.0061859059
      3774.99      0.36915672    0.0061641442
      3778.77      0.38033144    0.0061490382
      3782.54      0.39318231    0.0061634327
      3786.33      0.40986037    0.0061421988
      3790.11      0.42499001    0.0061572398
      3793.90      0.44198482    0.0061428640
      3797.70      0.45612805    0.0061204760
      3801.50      0.47203620    0.0061356108
      3805.30      0.48911096    0.0061145687
      3809.10      0.51068697    0.0061300760
      3812.91      0.53532364    0.0061156636
      3816.73      0.56236934    0.0060934496
      3820.54      0.59528612    0.0061092399
      3824.36      0.62811001    0.0060883987
      3828.19      0.65777654    0.0061045599
      3832.02      0.69162146    0.0061215157
      3835.85      0.72946606    0.0060680707
      3839.68      0.76408287    0.0060845397
      3843.52      0.79934714    0.0060636428
      3847.37      0.83562945    0.0060806800
      3851.22      0.87025150    0.0060982436
      3855.07      0.90699934    0.0060775718
      3858.92      0.94011573    0.0060613740
      3862.78      0.97751083    0.0060403383
      3866.64       1.0121898    0.0060585513
      3870.51       1.0477542    0.0060766374
      3874.38       1.0869653    0.0060557712
      3878.26       1.1203265    0.0060745588
      3882.13       1.1448257    0.0060188947
      3886.02       1.1687280    0.0060384811
      3889.90       1.1917738    0.0060570312
      3893.79       1.2119350    0.0060358709
      3897.69       1.2301512    0.0060562672
      3901.59       1.2459110    0.0060346033
      3905.49       1.2598510    0.0060547040
      3909.39       1.2694266    0.0060342454
      3913.30       1.2802572    0.0060543424
      3917.22       1.2871921    0.0059970299
      3921.13       1.2931065    0.0060181297
      3925.06       1.2971313    0.0060386427
      3928.98       1.3029972    0.0060176038
      3932.91       1.3089393    0.0060399402
      3936.84       1.3114800    0.0060183501
      3940.78       1.3105611    0.0060403382
      3944.72       1.3113297    0.0060199085
      3948.67       1.3144585    0.0060422035
      3952.61       1.3104779    0.0060211144
      3956.57       1.3090981    0.0060446624
      3960.52       1.3069438    0.0060286133
      3964.48       1.3014667    0.0060073619
      3968.45       1.2983530    0.0060328607
      3972.42       1.2971038    0.0060108101
      3976.39       1.2883139    0.0060344844
      3980.37       1.2796511    0.0060136944
      3984.35       1.2622897    0.0060395792
      3988.33       1.2449411    0.0060178930
      3992.32       1.2327590    0.0060430936
      3996.31       1.2142047    0.0060225470
      4000.31       1.1975788    0.0060491594
      4004.31       1.1804185    0.0060276839
      4008.31       1.1578315    0.0060544769
      4012.32       1.1384809    0.0060339843
      4016.33       1.1152093    0.0060616563
      4020.35       1.0902348    0.0060402484
      4024.37       1.0666350    0.0060685567
      4028.40       1.0440197    0.0060482760
      4032.42       1.0201086    0.0060770767
      4036.46      0.99635315    0.0060558049
      4040.50      0.97543643    0.0060856862
      4044.54      0.95604770    0.0060654073
      4048.58      0.93730236    0.0060957221
      4052.63      0.91978570    0.0060744333
      4056.68      0.90631416    0.0061058340
      4060.74      0.89556042    0.0060854946
      4064.80      0.88376699    0.0061178732
      4068.86      0.87411320    0.0060962802
      4072.93      0.86621730    0.0061293328
      4077.01      0.85809129    0.0061086874
      4081.08      0.85217479    0.0061437601
      4085.17      0.83962495    0.0061219311
      4089.25      0.83125227    0.0061566752
      4093.34      0.82051041    0.0061358658
      4097.43      0.81510736    0.0061154284
      4101.53      0.81118872    0.0061516630
      4105.63      0.80891122    0.0060765261
      4109.74      0.80508441    0.0060555149
      4113.85      0.79923216    0.0060350918
      4117.96      0.79742190    0.0060150770
      4122.08      0.79642746    0.0059432607
      4126.20      0.79673946    0.0059767909
      4130.33      0.80166978    0.0059560082
      4134.46      0.80518802    0.0059357987
      4138.59      0.80918813    0.0059160329
      4142.73      0.81239101    0.0058458595
      4146.88      0.81441697    0.0058253017
      4151.02      0.81475123    0.0058050117
      4155.18      0.81223816    0.0058381056
      4159.33      0.80935956    0.0058184445
      4163.49      0.80449051    0.0057505302
      4167.65      0.79953752    0.0057300476
      4171.82      0.79953435    0.0057100091
      4175.99      0.79607965    0.0056900391
      4180.17      0.79437520    0.0056704951
      4184.35      0.79283333    0.0056576291
      4188.54      0.79212639    0.0056371480
      4192.72      0.79035499    0.0056171294
      4196.92      0.79123277    0.0055972447
      4201.11      0.78790488    0.0055776222
      4205.31      0.78802523    0.0055583828
      4209.52      0.79172289    0.0054927573
      4213.73      0.79656551    0.0054739794
      4217.94      0.80184754    0.0054556413
      4222.16      0.80885787    0.0054873559
      4226.38      0.81693439    0.0054679606
      4230.61      0.82493517    0.0054489160
      4234.84      0.83467223    0.0054299655
      4239.08      0.84156500    0.0053658117
      4243.32      0.85183608    0.0053474666
      4247.56      0.85764253    0.0053291787
      4251.81      0.86010207    0.0053111519
      4256.06      0.86356602    0.0052932885
      4260.32      0.86928821    0.0052754725
      4264.58      0.87307783    0.0052578557
      4268.84      0.87285940    0.0051964189
      4273.11      0.86780318    0.0051783772
      4277.38      0.86108538    0.0052064413
      4281.66      0.85150106    0.0051885546
      4285.94      0.84621513    0.0051707086
      4290.23      0.83931712    0.0051532032
      4294.52      0.82968312    0.0051356773
      4298.81      0.81784072    0.0051181574
      4303.11      0.80721268    0.0051009456
      4307.42      0.79564195    0.0050433424
      4311.72      0.78184615    0.0050258193
      4316.04      0.76972670    0.0050085087
      4320.35      0.75522705    0.0049912953
      4324.67      0.74105809    0.0049741956
      4329.00      0.72741358    0.0049571404
      4333.33      0.71395001    0.0049401898
      4337.66      0.70586564    0.0049233357
      4342.00      0.69738096    0.0049065173
      4346.34      0.69048002    0.0048897986
      4350.69      0.68315707    0.0048731548
      4355.04      0.67742688    0.0048566724
      4359.39      0.67276307    0.0048402629
      4363.75      0.67429632    0.0047847895
      4368.12      0.67575159    0.0047686183
      4372.48      0.67673573    0.0047525023
      4376.86      0.68102478    0.0047364721
      4381.23      0.68823191    0.0047205135
      4385.61      0.69598741    0.0047046088
      4390.00      0.70596166    0.0046887828
      4394.39      0.71710361    0.0046730164
      4398.79      0.73053969    0.0046573155
      4403.18      0.74527866    0.0046417204
      4407.59      0.76070707    0.0046260772
      4412.00      0.77692935    0.0046105901
      4416.41      0.79600870    0.0045951042
      4420.82      0.81395950    0.0045796804
      4425.25      0.83643521    0.0045644037
      4429.67      0.85857380    0.0045491736
      4434.10      0.88047268    0.0045338976
      4438.54      0.90549815    0.0045187731
      4442.97      0.93054676    0.0045036883
      4447.42      0.95850299    0.0044504801
      4451.86      0.98639401    0.0044356234
      4456.32       1.0194905    0.0044209231
      4460.77       1.0514415    0.0044063525
      4465.24       1.0875408    0.0043916735
      4469.70       1.1216134    0.0043771655
      4474.17       1.1588817    0.0043628023
      4478.65       1.1980222    0.0043483444
      4483.12       1.2354915    0.0043340593
      4487.61       1.2732836    0.0043199305
      4492.09       1.3117772    0.0043058128
      4496.59       1.3466970    0.0042918184
      4501.08       1.3833701    0.0042780003
      4505.58       1.4171858    0.0042272245
      4510.09       1.4502871    0.0042131330
      4514.60       1.4796567    0.0041992672
      4519.12       1.5085668    0.0041854972
      4523.63       1.5368764    0.0041716783
      4528.16       1.5609506    0.0041580846
      4532.69       1.5854135    0.0041446051
      4537.22       1.6070876    0.0041310865
      4541.76       1.6282360    0.0041502865
      4546.30       1.6464125    0.0041026979
      4550.85       1.6636630    0.0040890770
      4555.40       1.6738598    0.0040755080
      4559.95       1.6883725    0.0040621895
      4564.51       1.6997153    0.0040489730
      4569.08       1.7076731    0.0040357334
      4573.65       1.7147915    0.0040227470
      4578.22       1.7201215    0.0039768298
      4582.80       1.7215301    0.0039641123
      4587.38       1.7225300    0.0039515852
      4591.97       1.7198996    0.0039392595
      4596.56       1.7116375    0.0039270798
      4601.16       1.7021952    0.0039436616
      4605.76       1.6900779    0.0039309978
      4610.37       1.6756601    0.0038862190
      4614.98       1.6555036    0.0038738940
      4619.59       1.6353276    0.0038617967
      4624.21       1.6131234    0.0038499354
      4628.84       1.5903941    0.0038381414
      4633.47       1.5650908    0.0037938862
      4638.10       1.5339074    0.0038107644
      4642.74       1.4996477    0.0037988129
      4647.38       1.4708478    0.0037869832
      4652.03       1.4352261    0.0037754019
      4656.68       1.3990715    0.0037640881
      4661.34       1.3620463    0.0037208518
      4666.00       1.3231493    0.0037091618
      4670.67       1.2842227    0.0036976528
      4675.33       1.2438393    0.0037145620
      4680.01       1.2014293    0.0036731489
      4684.69       1.1607737    0.0036613965
      4689.38       1.1206059    0.0036499363
      4694.07       1.0832003    0.0036386655
      4698.76       1.0507991    0.0036276838
      4703.46       1.0173020    0.0036149771
      4708.16      0.99081336    0.0036034992
      4712.87      0.96857553    0.0035922762
      4717.58      0.94788335    0.0035812878
      4722.30      0.93361203    0.0035420835
      4727.03      0.92178257    0.0035317431
      4731.75      0.91360366    0.0035468598
      4736.48      0.90767417    0.0035360079
      4741.22      0.90207803    0.0034973315
      4745.96      0.89658739    0.0034871591
      4750.71      0.89215127    0.0034772730
      4755.46      0.88763219    0.0034918150
      4760.22      0.88182974    0.0034536805
      4764.97      0.87673435    0.0034436781
      4769.74      0.87044326    0.0034339777
      4774.51      0.86495045    0.0034211505
      4779.29      0.85951674    0.0034109917
      4784.07      0.85833770    0.0034012217
      4788.85      0.85742577    0.0033917771
      4793.64      0.85846268    0.0033541796
      4798.43      0.86077422    0.0033692631
      4803.23      0.86465748    0.0033598157
      4808.03      0.87157464    0.0033232980
      4812.84      0.88260754    0.0033134471
      4817.66      0.89462351    0.0033286052
      4822.48      0.90781950    0.0032930391
      4827.30      0.92180541    0.0032831969
      4832.12      0.93614666    0.0032737225
      4836.96      0.95305310    0.0032633190
      4841.79      0.96927907    0.0032535417
      4846.63      0.98515969    0.0032440973
      4851.48      0.99910664    0.0032100638
      4856.33       1.0136078    0.0032243585
      4861.19       1.0264695    0.0032149892
      4866.05       1.0398042    0.0031812680
      4870.92       1.0515124    0.0031956571
      4875.79       1.0619091    0.0031864021
      4880.66       1.0691317    0.0031530812
      4885.55       1.0752578    0.0031447514
      4890.43       1.0763439    0.0031583308
      4895.32       1.0728639    0.0031253897
      4900.22       1.0676509    0.0031172453
      4905.12       1.0600415    0.0031308261
      4910.02       1.0469125    0.0030982549
      4914.94       1.0341646    0.0030903149
      4919.85       1.0191943    0.0030798863
      4924.77       1.0034931    0.0030716087
      4929.70      0.99032539    0.0030638392
      4934.62      0.97365308    0.0030535527
      4939.56      0.95969003    0.0030455971
      4944.50      0.94708582    0.0030142140
      4949.44      0.93416518    0.0030277970
      4954.39      0.92386938    0.0030201048
      4959.35      0.91483752    0.0029888571
      4964.31      0.90755211    0.0030025800
      4969.27      0.89901991    0.0029720438
      4974.24      0.89276619    0.0029639734
      4979.22      0.88617970    0.0029779274
      4984.20      0.87897665    0.0029474452
      4989.18      0.87483352    0.0029397113
      4994.17      0.87123322    0.0029312392
      4999.16      0.86908557    0.0029233484
      5004.16      0.86995938    0.0028942946
      5009.17      0.87267249    0.0029073219
      5014.18      0.87704951    0.0028783050
      5019.19      0.88223468    0.0028916335
      5024.21      0.88960059    0.0028840659
      5029.23      0.89886667    0.0028556841
      5034.26      0.90983254    0.0028685009
      5039.30      0.92081775    0.0028401917
      5044.34      0.92943305    0.0028532732
      5049.39      0.93919912    0.0028249565
      5054.43      0.94678134    0.0028185767
      5059.49      0.95449628    0.0028100238
      5064.55      0.96061333    0.0028035708
      5069.61      0.96525617    0.0027953477
      5074.68      0.97062923    0.0027888600
      5079.76      0.97562460    0.0027614280
      5084.84      0.98192403    0.0027744217
      5089.92      0.98815721    0.0027472910
      5095.01      0.99622745    0.0027601844
      5100.11       1.0031339    0.0027334014
      5105.21       1.0107470    0.0027461774
      5110.31       1.0212733    0.0027196759
      5115.42       1.0329418    0.0027132305
      5120.54       1.0473564    0.0027061647
      5125.66       1.0638369    0.0026997874
      5130.79       1.0827459    0.0026928957
      5135.92       1.1024907    0.0026865275
      5141.05       1.1240776    0.0026797336
      5146.20       1.1477712    0.0026735158
      5151.34       1.1734210    0.0026668404
      5156.49       1.2004697    0.0026607007
      5161.65       1.2287574    0.0026540743
      5166.81       1.2567241    0.0026289409
      5171.98       1.2846710    0.0026414762
      5177.15       1.3138238    0.0026166734
      5182.33       1.3418966    0.0026291312
      5187.51       1.3674261    0.0026045640
      5192.70       1.3919819    0.0026169543
      5197.89       1.4127637    0.0025926795
      5203.09       1.4352786    0.0025862856
      5208.29       1.4566167    0.0025810482
      5213.50       1.4759125    0.0025746068
      5218.72       1.4936597    0.0025695734
      5223.93       1.5107962    0.0025631701
      5229.16       1.5255848    0.0025584072
      5234.39       1.5396861    0.0025519499
      5239.62       1.5521161    0.0025285458
      5244.86       1.5623584    0.0025408989
      5250.11       1.5709975    0.0025175696
      5255.36       1.5780377    0.0025302221
      5260.61       1.5834226    0.0025068549
      5265.87       1.5883544    0.0025013956
      5271.14       1.5923417    0.0024963661
      5276.41       1.5961595    0.0024907956
      5281.69       1.5974614    0.0024857464
      5286.97       1.5966030    0.0024805001
      5292.26       1.5947958    0.0024753202
      5297.55       1.5945876    0.0024532780
      5302.85       1.5941606    0.0024651567
      5308.15       1.5938675    0.0024435934
      5313.46       1.5939658    0.0024553230
      5318.77       1.5933292    0.0024503045
      5324.09       1.5959700    0.0024287534
      5329.42       1.5992658    0.0024406194
      5334.75       1.6029841    0.0024196152
      5340.08       1.6057176    0.0024143908
      5345.42       1.6085661    0.0024263739
      5350.77       1.6135212    0.0024054535
      5356.12       1.6165568    0.0024004480
      5361.48       1.6198577    0.0023969302
      5366.83       1.6231793    0.0023917575
      5372.20       1.6283087    0.0023869469
      5377.58       1.6325244    0.0023664243
      5382.95       1.6378896    0.0023784812
      5388.34       1.6403166    0.0023738293
      5393.72       1.6472560    0.0023535160
      5399.12       1.6541877    0.0023655967
      5404.52       1.6609922    0.0023451792
      5409.92       1.6684481    0.0023409337
      5415.33       1.6741322    0.0023369816
      5420.75       1.6788707    0.0023329103
      5426.17       1.6859665    0.0023287615
      5431.60       1.6892970    0.0023248715
      5437.03       1.6895979    0.0023210119
      5442.47       1.6887861    0.0023169460
      5447.91       1.6848623    0.0023131351
      5453.36       1.6775735    0.0022940147
      5458.81       1.6673329    0.0023055199
      5464.27       1.6560543    0.0023017065
      5469.73       1.6440058    0.0022830111
      5475.20       1.6316710    0.0022790490
      5480.68       1.6149378    0.0022752937
      5486.16       1.6010850    0.0022871001
      5491.65       1.5860127    0.0022685519
      5497.14       1.5727068    0.0022647969
      5502.64       1.5598123    0.0022612267
      5508.14       1.5475903    0.0022584914
      5513.65       1.5375429    0.0022547468
      5519.16       1.5264246    0.0022511704
      5524.68       1.5159872    0.0022477803
      5530.20       1.5067214    0.0022297346
      5535.73       1.4968130    0.0022416206
      5541.27       1.4886559    0.0022381500
      5546.81       1.4791182    0.0022201380
      5552.36       1.4711528    0.0022170108
      5557.91       1.4615184    0.0022140275
      5563.47       1.4519238    0.0022257997
      5569.04       1.4415304    0.0022079369
      5574.60       1.4291545    0.0022048932
      5580.18       1.4152064    0.0022019613
      5585.76       1.3994220    0.0021991740
      5591.35       1.3842012    0.0021820695
      5596.94       1.3659204    0.0021791214
      5602.53       1.3471493    0.0021905496
      5608.14       1.3275713    0.0021877790
      5613.75       1.3075951    0.0021851062
      5619.36       1.2879157    0.0021683680
      5624.98       1.2659243    0.0021655571
      5630.60       1.2427314    0.0021628256
      5636.23       1.2202549    0.0021602096
      5641.87       1.1972815    0.0021717958
      5647.51       1.1733885    0.0021555637
      5653.16       1.1509086    0.0021528772
      5658.82       1.1299853    0.0021502658
      5664.47       1.1087063    0.0021477591
      5670.14       1.0920137    0.0021453186
      5675.81       1.0792944    0.0021291076
      5681.48       1.0695100    0.0021268024
