# starting wavelength =        3164.5300
# ending wavelength =        9092.7500
# O2 telluric scale =        0
# O2 telluric shift =        0
# H2O telluric scale =        0
# H2O telluric shift =        0
      3166.03      0.29146663     0.023450357
      3169.19      0.28784710     0.019897383
      3172.36      0.28843167     0.017078274
      3175.54      0.28949555     0.014852775
      3178.71      0.29575634     0.013107917
      3181.89      0.30372906     0.011737526
      3185.07      0.31717729     0.010670432
      3188.26      0.32798766    0.0098361446
      3191.45      0.34048551    0.0091856528
      3194.64      0.35619770    0.0086778098
      3197.83      0.37346133    0.0082757592
      3201.03      0.39420744    0.0079554306
      3204.23      0.41450409    0.0076953622
      3207.44      0.43136798    0.0074815835
      3210.64      0.45631000    0.0073029508
      3213.85      0.48006531    0.0071508111
      3217.07      0.49898285    0.0070198685
      3220.28      0.51839676    0.0069054451
      3223.51      0.53602074    0.0068047707
      3226.73      0.55408027    0.0067119664
      3229.96      0.57907092    0.0067028672
      3233.19      0.60258932    0.0067339577
      3236.42      0.61211863    0.0067250221
      3239.66      0.62498571    0.0067162222
      3242.90      0.65570251    0.0067075678
      3246.14      0.67459060    0.0067389329
      3249.39      0.68213476    0.0067295566
      3252.64      0.69089104    0.0067204010
      3255.89      0.71292672    0.0067114175
      3259.14      0.73476135    0.0067437360
      3262.40      0.75285691    0.0067349843
      3265.67      0.77141788    0.0067264145
      3268.93      0.78601672    0.0066729972
      3272.20      0.80338673    0.0067048458
      3275.47      0.81568863    0.0066958030
      3278.75      0.83295174    0.0066869503
      3282.03      0.84903027    0.0066782197
      3285.31      0.86571723    0.0067101961
      3288.60      0.88614339    0.0067007875
      3291.88      0.90521632    0.0066916014
      3295.18      0.92545151    0.0066825675
      3298.47      0.93852588    0.0067158981
      3301.77      0.95487410    0.0066621693
      3305.07      0.97249651    0.0066527262
      3308.38      0.98944318    0.0066434853
      3311.69       1.0114737    0.0066763613
      3315.00       1.0314856    0.0066675338
      3318.31       1.0515343    0.0066589050
      3321.63       1.0693805    0.0066910720
      3324.95       1.0904033    0.0066817073
      3328.28       1.1056933    0.0066280280
      3331.61       1.1165232    0.0066618411
      3334.94       1.1288937    0.0066519733
      3338.27       1.1395688    0.0066423269
      3341.61       1.1506893    0.0066330692
      3344.95       1.1669166    0.0066671394
      3348.30       1.1781545    0.0066584222
      3351.65       1.1917041    0.0066499608
      3355.00       1.2109797    0.0066365688
      3358.35       1.2241087    0.0066273280
      3361.71       1.2375577    0.0066185161
      3365.07       1.2490919    0.0066520511
      3368.44       1.2618247    0.0066423875
      3371.81       1.2709427    0.0066330861
      3375.18       1.2784716    0.0066683954
      3378.56       1.2831573    0.0066123511
      3381.94       1.2918950    0.0066026136
      3385.32       1.3004323    0.0066372704
      3388.70       1.3088402    0.0066282720
      3392.09       1.3176530    0.0066197162
      3395.48       1.3277862    0.0066534152
      3398.88       1.3378794    0.0065972887
      3402.28       1.3442708    0.0065883481
      3405.68       1.3501593    0.0066229252
      3409.09       1.3573014    0.0066130700
      3412.49       1.3632663    0.0066036902
      3415.91       1.3697141    0.0066402316
      3419.32       1.3692016    0.0065825053
      3422.74       1.3753018    0.0066180203
      3426.17       1.3781000    0.0066087144
      3429.59       1.3781504    0.0065999570
      3433.02       1.3751151    0.0066348845
      3436.45       1.3759413    0.0065775158
      3439.89       1.3764780    0.0065684457
      3443.33       1.3764174    0.0066039653
      3446.78       1.3758903    0.0065939626
      3450.22       1.3743936    0.0066313105
      3453.67       1.3736610    0.0066225598
      3457.13       1.3720620    0.0065628965
      3460.58       1.3691743    0.0065997841
      3464.04       1.3653375    0.0065908311
      3467.51       1.3607521    0.0066273570
      3470.98       1.3525438    0.0065684004
      3474.45       1.3439124    0.0065591592
      3477.92       1.3355780    0.0065959205
      3481.40       1.3279578    0.0065858198
      3484.88       1.3242673    0.0066245641
      3488.37       1.3227574    0.0065645632
      3491.86       1.3203947    0.0066022348
      3495.35       1.3203153    0.0065926421
      3498.84       1.3219260    0.0065839774
      3502.34       1.3240372    0.0066209204
      3505.84       1.3280154    0.0065609663
      3509.35       1.3252412    0.0065995331
      3512.86       1.3219965    0.0065889646
      3516.37       1.3176469    0.0066289403
      3519.89       1.3130300    0.0065675476
      3523.41       1.3121307    0.0065569940
      3526.93       1.3062307    0.0065968544
      3530.46       1.3004394    0.0065880200
      3533.99       1.2993977    0.0065742928
      3537.53       1.2948103    0.0065646832
      3541.06       1.2878520    0.0066043521
      3544.60       1.2801223    0.0065938725
      3548.15       1.2718326    0.0065832808
      3551.70       1.2644264    0.0065718882
      3555.25       1.2520722    0.0066127304
      3558.80       1.2432318    0.0066033949
      3562.36       1.2344145    0.0065903648
      3565.92       1.2253055    0.0065801720
      3569.49       1.2158317    0.0066221026
      3573.06       1.2076897    0.0066110111
      3576.64       1.2000214    0.0065479007
      3580.21       1.1924303    0.0065888867
      3583.79       1.1868314    0.0065782148
      3587.38       1.1837959    0.0066219382
      3590.96       1.1812327    0.0065557390
      3594.55       1.1780678    0.0065984939
      3598.15       1.1763106    0.0065896379
      3601.75       1.1708374    0.0066307352
      3605.35       1.1653093    0.0066199752
      3608.96       1.1630304    0.0066079914
      3612.56       1.1633738    0.0066527107
      3616.18       1.1650193    0.0065855649
      3619.79       1.1678761    0.0066294365
      3623.41       1.1718970    0.0066197140
      3627.04       1.1751771    0.0066637612
      3630.66       1.1768748    0.0065960577
      3634.29       1.1805453    0.0066409345
      3637.93       1.1823023    0.0066297265
      3641.57       1.1831851    0.0066186115
      3645.21       1.1809574    0.0066066249
      3648.86       1.1771988    0.0066536834
      3652.50       1.1664544    0.0065836832
      3656.16       1.1544639    0.0066298292
      3659.81       1.1389017    0.0066771301
      3663.47       1.1199030    0.0066654815
      3667.14       1.0981214    0.0066542683
      3670.80       1.0772736    0.0066419277
      3674.48       1.0526717    0.0066914580
      3678.15       1.0271857    0.0066184350
      3681.83       1.0031963    0.0066673008
      3685.51      0.98176116    0.0066587980
      3689.20      0.95827128    0.0066433768
      3692.88      0.93849947    0.0066929213
      3696.58      0.92548907    0.0066807331
      3700.27      0.91773289    0.0066693889
      3703.98      0.90901343    0.0066567248
      3707.68      0.90267960    0.0067091898
      3711.39      0.90067017    0.0066952617
      3715.10      0.90025080    0.0066848107
      3718.81      0.90117088    0.0067351318
      3722.53      0.90009985    0.0066603739
      3726.26      0.89888421    0.0067109555
      3729.98      0.89477771    0.0067651400
      3733.71      0.88996856    0.0066868623
      3737.45      0.88457829    0.0067404568
      3741.18      0.87836548    0.0066625177
      3744.93      0.87342527    0.0067158106
      3748.67      0.86793917    0.0067699685
      3752.42      0.86490529    0.0066913321
      3756.17      0.85935661    0.0067452385
      3759.93      0.85462071    0.0067328034
      3763.69      0.84897103    0.0067204797
      3767.45      0.84487298    0.0067080440
      3771.22      0.84526258    0.0066956800
      3774.99      0.84595862    0.0066176797
      3778.77      0.84806256    0.0066708475
      3782.54      0.85289702    0.0065933215
      3786.33      0.85670226    0.0066459572
      3790.11      0.85962457    0.0065689756
      3793.90      0.86377293    0.0066211190
      3797.70      0.86695517    0.0065446591
      3801.50      0.87228392    0.0065963290
      3805.30      0.87869421    0.0065203787
      3809.10      0.88888326    0.0065715020
      3812.91      0.90571526    0.0064962251
      3816.73      0.92562948    0.0064822459
      3820.54      0.95054980    0.0064722794
      3824.36      0.97988161    0.0064577362
      3828.19       1.0154308    0.0064482822
      3832.02       1.0548456    0.0064333905
      3835.85       1.0986593    0.0064246171
      3839.68       1.1506541    0.0064093242
      3843.52       1.2075022    0.0063345171
      3847.37       1.2680852    0.0063853064
      3851.22       1.3329640    0.0063717447
      3855.07       1.3943606    0.0063613825
      3858.92       1.4574070    0.0063472990
      3862.78       1.5170431    0.0063378842
      3866.64       1.5794117    0.0063231949
      3870.51       1.6404253    0.0062495820
      3874.38       1.6991000    0.0062991718
      3878.26       1.7562127    0.0062251461
      3882.13       1.8147617    0.0062755885
      3886.02       1.8683406    0.0062010731
      3889.90       1.9158007    0.0061891742
      3893.79       1.9564172    0.0062374612
      3897.69       1.9879457    0.0061644806
      3901.59       2.0187354    0.0061538420
      3905.49       2.0417518    0.0061402492
      3909.39       2.0593798    0.0061285616
      3913.30       2.0783052    0.0061163147
      3917.22       2.0927228    0.0061037535
      3921.13       2.1100504    0.0060931099
      3925.06       2.1305133    0.0060795847
      3928.98       2.1474370    0.0060678432
      3932.91       2.1619439    0.0059983415
      3936.84       2.1736360    0.0060430465
      3940.78       2.1873332    0.0059754302
      3944.72       2.2022440    0.0059617899
      3948.67       2.2200575    0.0060069183
      3952.61       2.2328764    0.0059387646
      3956.57       2.2447403    0.0059824845
      3960.52       2.2504970    0.0059163737
      3964.48       2.2556752    0.0059022499
      3968.45       2.2575611    0.0059461632
      3972.42       2.2520599    0.0058797886
      3976.39       2.2401980    0.0058659727
      3980.37       2.2245411    0.0059098666
      3984.35       2.2110048    0.0058432750
      3988.33       2.1949570    0.0058298291
      3992.32       2.1762871    0.0058216695
      3996.31       2.1565656    0.0058070071
      4000.31       2.1339829    0.0057936476
      4004.31       2.1069316    0.0057280588
      4008.31       2.0756725    0.0057708399
      4012.32       2.0466612    0.0057577754
      4016.33       2.0216340    0.0056925296
      4020.35       1.9943646    0.0057350738
      4024.37       1.9707885    0.0056688201
      4028.40       1.9450813    0.0056568666
      4032.42       1.9207820    0.0056993222
      4036.46       1.9038139    0.0056333949
      4040.50       1.8863730    0.0056213686
      4044.54       1.8740414    0.0056103135
      4048.58       1.8573255    0.0055979129
      4052.63       1.8406759    0.0055857583
      4056.68       1.8271726    0.0055745188
      4060.74       1.8144048    0.0055627595
      4064.80       1.8002312    0.0055502404
      4068.86       1.7857411    0.0055386414
      4072.93       1.7715157    0.0054769317
      4077.01       1.7597783    0.0055149820
      4081.08       1.7488158    0.0055030046
      4085.17       1.7386482    0.0054918416
      4089.25       1.7310274    0.0054293825
      4093.34       1.7246559    0.0054673959
      4097.43       1.7190638    0.0054558838
      4101.53       1.7202957    0.0053950154
      4105.63       1.7212205    0.0053823508
      4109.74       1.7201628    0.0054202603
      4113.85       1.7197116    0.0053610038
      4117.96       1.7147992    0.0053479475
      4122.08       1.7105656    0.0053355461
      4126.20       1.6975056    0.0053732402
      4130.33       1.6800386    0.0053140837
      4134.46       1.6621611    0.0053011563
      4138.59       1.6455718    0.0052888585
      4142.73       1.6315770    0.0052299942
      4146.88       1.6192805    0.0052674944
      4151.02       1.6062179    0.0052544859
      4155.18       1.6000595    0.0052421598
      4159.33       1.6014790    0.0051837757
      4163.49       1.6030338    0.0052211226
      4167.65       1.6104510    0.0052082323
      4171.82       1.6228677    0.0051958331
      4175.99       1.6369984    0.0051377470
      4180.17       1.6570637    0.0051263284
      4184.35       1.6753677    0.0051622661
      4188.54       1.6957569    0.0051497425
      4192.72       1.7103800    0.0050919075
      4196.92       1.7211527    0.0050801702
      4201.11       1.7274154    0.0050689197
      4205.31       1.7282664    0.0050581508
      4209.52       1.7298124    0.0050462520
      4213.73       1.7299706    0.0050343916
      4217.94       1.7262081    0.0050227516
      4222.16       1.7210182    0.0050115692
      4226.38       1.7160582    0.0049567037
      4230.61       1.7129901    0.0049447934
      4234.84       1.7096676    0.0049771209
      4239.08       1.7053824    0.0049655441
      4243.32       1.7014518    0.0049542312
      4247.56       1.7012780    0.0049003093
      4251.81       1.7027088    0.0048882117
      4256.06       1.7057260    0.0048762827
      4260.32       1.7106606    0.0049084770
      4264.58       1.7144180    0.0048969399
      4268.84       1.7174649    0.0048446068
      4273.11       1.7186471    0.0048324700
      4277.38       1.7169906    0.0048204590
      4281.66       1.7142703    0.0048085626
      4285.94       1.7090348    0.0047969575
      4290.23       1.7005035    0.0047856202
      4294.52       1.6887779    0.0047774605
      4298.81       1.6740166    0.0047652949
      4303.11       1.6570093    0.0047532121
      4307.42       1.6371982    0.0047413852
      4311.72       1.6188608    0.0047298017
      4316.04       1.5965439    0.0047182858
      4320.35       1.5739712    0.0046665595
      4324.67       1.5501061    0.0046553799
      4329.00       1.5252988    0.0046443977
      4333.33       1.4983603    0.0046334589
      4337.66       1.4731257    0.0046633173
      4342.00       1.4469819    0.0046516121
      4346.34       1.4216196    0.0046004340
      4350.69       1.3991272    0.0045890532
      4355.04       1.3788474    0.0045778301
      4359.39       1.3620527    0.0045667091
      4363.75       1.3488418    0.0045556681
      4368.12       1.3387041    0.0045446256
      4372.48       1.3321385    0.0045337175
      4376.86       1.3295197    0.0045228900
      4381.23       1.3292963    0.0044737084
      4385.61       1.3323790    0.0044624336
      4390.00       1.3404003    0.0044512278
      4394.39       1.3514564    0.0044400658
      4398.79       1.3629059    0.0044676722
      4403.18       1.3730834    0.0044566028
      4407.59       1.3831868    0.0044454831
      4412.00       1.3924805    0.0044344671
      4416.41       1.4031062    0.0044235065
      4420.82       1.4163249    0.0043772925
      4425.25       1.4334360    0.0043660526
      4429.67       1.4505230    0.0043548598
      4434.10       1.4690847    0.0043437283
      4438.54       1.4906213    0.0043326300
      4442.97       1.5132427    0.0043215859
      4447.42       1.5361645    0.0043105984
      4451.86       1.5641965    0.0042996249
      4456.32       1.5930496    0.0042886939
      4460.77       1.6201470    0.0042777925
      4465.24       1.6505908    0.0042669073
      4469.70       1.6807047    0.0042560993
      4474.17       1.7129752    0.0042452384
      4478.65       1.7439968    0.0042343913
      4483.12       1.7718562    0.0041887937
      4487.61       1.8017161    0.0041781246
      4492.09       1.8317723    0.0041674632
      4496.59       1.8644959    0.0041568129
      4501.08       1.8960202    0.0041461963
      4505.58       1.9241269    0.0041355760
      4510.09       1.9542955    0.0041249529
      4514.60       1.9838987    0.0041143431
      4519.12       2.0097223    0.0041037748
      4523.63       2.0381065    0.0040932313
      4528.16       2.0651607    0.0040827186
      4532.69       2.0905695    0.0040722069
      4537.22       2.1167993    0.0040616949
      4541.76       2.1409001    0.0040511901
      4546.30       2.1628441    0.0040068397
      4550.85       2.1824639    0.0039964809
      4555.40       2.1977739    0.0039861110
      4559.95       2.2118628    0.0039758451
      4564.51       2.2229967    0.0039655276
      4569.08       2.2280891    0.0039552431
      4573.65       2.2320944    0.0039450204
      4578.22       2.2349050    0.0039348259
      4582.80       2.2355514    0.0039245906
      4587.38       2.2277865    0.0039144716
      4591.97       2.2188622    0.0039043708
      4596.56       2.2140136    0.0038942987
      4601.16       2.2066170    0.0038842705
      4605.76       2.1961521    0.0038743041
      4610.37       2.1889642    0.0038308103
      4614.98       2.1800948    0.0038206692
      4619.59       2.1692707    0.0038105400
      4624.21       2.1576520    0.0038004681
      4628.84       2.1462261    0.0037903825
      4633.47       2.1308390    0.0037804201
      4638.10       2.1114077    0.0038006682
      4642.74       2.0887705    0.0037907115
      4647.38       2.0649815    0.0037808231
      4652.03       2.0374702    0.0037397794
      4656.68       2.0058783    0.0037296087
      4661.34       1.9728376    0.0037194840
      4666.00       1.9386113    0.0037094765
      4670.67       1.9007369    0.0036994775
      4675.33       1.8623657    0.0036895501
      4680.01       1.8243886    0.0036796671
      4684.69       1.7873877    0.0036699314
      4689.38       1.7484549    0.0036303895
      4694.07       1.7105951    0.0036208584
      4698.76       1.6748995    0.0036114239
      4703.46       1.6402172    0.0036294933
      4708.16       1.6059584    0.0036195633
      4712.87       1.5721975    0.0036097915
      4717.58       1.5387975    0.0035706922
      4722.30       1.5032545    0.0035611657
      4727.03       1.4678748    0.0035517298
      4731.75       1.4345382    0.0035424676
      4736.48       1.4053438    0.0035332775
      4741.22       1.3790054    0.0035242602
      4745.96       1.3560436    0.0035118099
      4750.71       1.3372220    0.0035023401
      4755.46       1.3214889    0.0034929566
      4760.22       1.3099694    0.0034837147
      4764.97       1.3023751    0.0034746248
      4769.74       1.2979480    0.0034366566
      4774.51       1.2967711    0.0034271889
      4779.29       1.2991707    0.0034179088
      4784.07       1.3023312    0.0034350675
      4788.85       1.3084870    0.0034259888
      4793.64       1.3154657    0.0033888806
      4798.43       1.3201668    0.0033793901
      4803.23       1.3220859    0.0033700932
      4808.03       1.3202283    0.0033610256
      4812.84       1.3124873    0.0033510738
      4817.66       1.3059202    0.0033414614
      4822.48       1.3017104    0.0033320513
      4827.30       1.2981054    0.0033228955
      4832.12       1.2968606    0.0032876264
      4836.96       1.2985741    0.0032788952
      4841.79       1.3007180    0.0032944650
      4846.63       1.3063877    0.0032852478
      4851.48       1.3162962    0.0032502372
      4856.33       1.3277450    0.0032414487
      4861.19       1.3417702    0.0032329388
