# starting wavelength =        3203.2100
# ending wavelength =        8923.0800
# O2 telluric scale =        0
# O2 telluric shift =        0
# H2O telluric scale =        0
# H2O telluric shift =        0
      3204.23      0.67274770     0.018829129
      3207.44      0.62317321     0.015943839
      3210.64      0.58702199     0.013652872
      3213.85      0.55548661     0.011851905
      3217.07      0.53031021     0.010433755
      3220.28      0.50158922    0.0093256357
      3223.51      0.47691468    0.0084664493
      3226.73      0.46898820    0.0076688445
      3229.96      0.45314218    0.0071798823
      3233.19      0.43033910    0.0067974182
      3236.42      0.40790261    0.0064968439
      3239.66      0.38257040    0.0062588581
      3242.90      0.36181866    0.0060667439
      3246.14      0.34632216    0.0059096747
      3249.39      0.33860150    0.0057793979
      3252.64      0.32829820    0.0056692999
      3255.89      0.31560055    0.0055752472
      3259.14      0.30619453    0.0054938344
      3262.40      0.29831909    0.0053941060
      3265.67      0.28146815    0.0053624292
      3268.93      0.26165681    0.0053678473
      3272.20      0.26699526    0.0054080362
      3275.47      0.27974224    0.0054129122
      3278.75      0.29512507    0.0054178706
      3282.03      0.32089771    0.0054230255
      3285.31      0.31819062    0.0054639463
      3288.60      0.31586755    0.0054694018
      3291.88      0.30804138    0.0054425749
      3295.18      0.30832689    0.0054474103
      3298.47      0.30281518    0.0054881972
      3301.77      0.30354217    0.0054933607
      3305.07      0.29787822    0.0054987612
      3308.38      0.28625738    0.0055395281
      3311.69      0.29054525    0.0055442768
      3315.00      0.30237564    0.0055492120
      3318.31      0.30378367    0.0055591061
      3321.63      0.30796152    0.0055633842
      3324.95      0.31652406    0.0055679286
      3328.28      0.32066354    0.0056099765
      3331.61      0.32445696    0.0056148973
      3334.94      0.32287938    0.0056201044
      3338.27      0.31765214    0.0056255510
      3341.61      0.32514140    0.0056668562
      3344.95      0.32830323    0.0056377585
      3348.30      0.32163955    0.0056427898
      3351.65      0.30915639    0.0056851580
      3355.00      0.30555933    0.0056895410
      3358.35      0.30613696    0.0056941937
      3361.71      0.31422322    0.0057382260
      3365.07      0.32141249    0.0057075362
      3368.44      0.32540471    0.0057509501
      3371.81      0.33160059    0.0057554836
      3375.18      0.34238350    0.0057603489
      3378.56      0.35389993    0.0058042799
      3381.94      0.36430742    0.0058084205
      3385.32      0.37597581    0.0057772296
      3388.70      0.38197878    0.0058219637
      3392.09      0.38916424    0.0058257545
      3395.48      0.39905139    0.0058298560
      3398.88      0.40763503    0.0058753672
      3402.28      0.41391569    0.0058802972
      3405.68      0.42260968    0.0058876999
      3409.09      0.42804920    0.0058918644
      3412.49      0.43080871    0.0058964363
      3415.91      0.42984324    0.0059420198
      3419.32      0.42755967    0.0059458432
      3422.74      0.42524649    0.0059501563
      3426.17      0.42480292    0.0059585950
      3429.59      0.42151635    0.0059620943
      3433.02      0.42164418    0.0060091363
      3436.45      0.41907504    0.0060136195
      3439.89      0.41072562    0.0060186990
      3443.33      0.39798300    0.0060249651
      3446.78      0.38979184    0.0060292557
      3450.22      0.38127655    0.0060767288
      3453.67      0.37226043    0.0060802448
      3457.13      0.36252119    0.0060842527
      3460.58      0.35198502    0.0060924466
      3464.04      0.34438633    0.0060956267
      3467.51      0.34136258    0.0061446331
      3470.98      0.33580539    0.0061491584
      3474.45      0.33268437    0.0061560430
      3477.92      0.32888234    0.0061597386
      3481.40      0.32382481    0.0061641042
      3484.88      0.31687800    0.0062126036
      3488.37      0.31090540    0.0062162402
      3491.86      0.30933318    0.0062244863
      3495.35      0.30717742    0.0062272616
      3498.84      0.30479961    0.0062781169
      3502.34      0.30193973    0.0062824479
      3505.84      0.30060558    0.0062890466
      3509.35      0.30012130    0.0062925317
      3512.86      0.29975040    0.0062968540
      3516.37      0.29823061    0.0063469137
      3519.89      0.29434775    0.0063066287
      3523.41      0.29151265    0.0063580698
      3526.93      0.29046590    0.0063608573
      3530.46      0.29139903    0.0064142188
      3533.99      0.29117471    0.0063715610
      3537.53      0.29143304    0.0064243442
      3541.06      0.29204101    0.0064281959
      3544.60      0.29319357    0.0064809147
      3548.15      0.29300884    0.0064377942
      3551.70      0.29247520    0.0064917214
      3555.25      0.29158767    0.0064940370
      3558.80      0.29167410    0.0065497183
      3562.36      0.29236365    0.0065044065
      3565.92      0.29169160    0.0065593313
      3569.49      0.29020437    0.0065630880
      3573.06      0.28941384    0.0066178408
      3576.64      0.28922985    0.0065721882
      3580.21      0.28799363    0.0066281022
      3583.79      0.28745784    0.0066302386
      3587.38      0.28739492    0.0066385824
      3590.96      0.28567030    0.0066399153
      3594.55      0.28394130    0.0066979138
      3598.15      0.28226097    0.0067020850
      3601.75      0.27977274    0.0067070188
      3605.35      0.27620185    0.0067105677
      3608.96      0.27189285    0.0067677298
      3612.56      0.26785859    0.0067192182
      3616.18      0.26398687    0.0067772064
      3619.79      0.26297075    0.0068373868
      3623.41      0.26397137    0.0068411748
      3627.04      0.26417856    0.0068462241
      3630.66      0.26774394    0.0068492975
      3634.29      0.27248907    0.0069094239
      3637.93      0.27859594    0.0068576210
      3641.57      0.28625734    0.0069184747
      3645.21      0.29785258    0.0069202208
      3648.86      0.31303052    0.0069274092
      3652.50      0.33089156    0.0069900234
      3656.16      0.35035986    0.0069932300
      3659.81      0.37490032    0.0069984931
      3663.47      0.39902437    0.0070010993
      3667.14      0.42550031    0.0070642185
      3670.80      0.45362651    0.0070090125
      3674.48      0.48043773    0.0070726287
      3678.15      0.50637051    0.0071389675
      3681.83      0.52925527    0.0070808368
      3685.51      0.54823675    0.0071468168
      3689.20      0.56040696    0.0071504362
      3692.88      0.56904459    0.0071545359
      3696.58      0.57252934    0.0072226901
      3700.27      0.56727584    0.0072227893
      3703.98      0.55423222    0.0072306152
      3707.68      0.53865212    0.0072304879
      3711.39      0.51703663    0.0073015753
      3715.10      0.48800321    0.0073064292
      3718.81      0.45923411    0.0073088174
      3722.53      0.42601742    0.0073780952
      3726.26      0.39078583    0.0073866808
      3729.98      0.36094287    0.0073853228
      3733.71      0.33035512    0.0074599317
      3737.45      0.30343466    0.0073923108
      3741.18      0.27743206    0.0074669648
      3744.93      0.25764183    0.0074718060
      3748.67      0.24278932    0.0074738006
      3752.42      0.23171731    0.0075466644
      3756.17      0.22312255    0.0075550601
      3759.93      0.21498469    0.0075532581
      3763.69      0.20975922    0.0076326511
      3767.45      0.20619314    0.0076369825
      3771.22      0.20361441    0.0076393080
      3774.99      0.20269982    0.0076431937
      3778.77      0.20172833    0.0076458739
      3782.54      0.20336928    0.0076492809
      3786.33      0.20654624    0.0077287780
      3790.11      0.21036258    0.0076553053
      3793.90      0.21542286    0.0077341783
      3797.70      0.22336342    0.0076611624
      3801.50      0.23162690    0.0077394008
      3805.30      0.23999399    0.0076670609
      3809.10      0.24832213    0.0076717307
      3812.91      0.25822949    0.0076728079
      3816.73      0.26905024    0.0076767411
      3820.54      0.28096907    0.0076788514
      3824.36      0.29322460    0.0076818336
      3828.19      0.30729415    0.0076848319
      3832.02      0.32169986    0.0076869487
      3835.85      0.33913113    0.0076140853
      3839.68      0.35861098    0.0076921384
      3843.52      0.38139072    0.0076182125
      3847.37      0.40777338    0.0076974282
      3851.22      0.43698885    0.0077003743
      3855.07      0.47214912    0.0076280497
      3858.92      0.51099926    0.0077048908
      3862.78      0.55196607    0.0076313847
      3866.64      0.59839441    0.0076385356
      3870.51      0.64577682    0.0076350222
      3874.38      0.69699848    0.0076407642
      3878.26      0.74700781    0.0076389541
      3882.13      0.80041094    0.0076434012
      3886.02      0.85721395    0.0076504380
      3889.90      0.90769522    0.0076464208
      3893.79      0.95692081    0.0076518955
      3897.69      0.99750053    0.0076498361
      3901.59       1.0348589    0.0076539719
      3905.49       1.0622714    0.0075842585
      3909.39       1.0863453    0.0076565279
      3913.30       1.1042765    0.0076613466
      3917.22       1.1159729    0.0075901362
      3921.13       1.1230945    0.0076630638
      3925.06       1.1232502    0.0075939265
      3928.98       1.1176303    0.0075959183
      3932.91       1.1068875    0.0076694020
      3936.84       1.0919785    0.0075991560
      3940.78       1.0739531    0.0076015060
      3944.72       1.0600645    0.0076032820
      3948.67       1.0418730    0.0076042186
      3952.61       1.0268631    0.0076068084
      3956.57       1.0186544    0.0076079197
      3960.52       1.0123815    0.0076089799
      3964.48       1.0087095    0.0076117057
      3968.45       1.0131662    0.0076122671
      3972.42       1.0219669    0.0076134017
      3976.39       1.0408286    0.0075423355
      3980.37       1.0647351    0.0076163658
      3984.35       1.1028419    0.0076174141
      3988.33       1.1523453    0.0075463178
      3992.32       1.2069460    0.0076201781
      3996.31       1.2735998    0.0076211201
      4000.31       1.3415759    0.0075496777
      4004.31       1.4128147    0.0075535085
      4008.31       1.4757978    0.0076246547
      4012.32       1.5323405    0.0075527620
      4016.33       1.5822704    0.0075562379
      4020.35       1.6206237    0.0076276693
      4024.37       1.6416843    0.0075554862
      4028.40       1.6487999    0.0075586088
      4032.42       1.6373134    0.0075627092
      4036.46       1.6147572    0.0075578345
      4040.50       1.5751810    0.0075603653
      4044.54       1.5220997    0.0075638151
      4048.58       1.4623254    0.0074935174
      4052.63       1.3952176    0.0075617007
      4056.68       1.3212854    0.0075645766
      4060.74       1.2542282    0.0074955506
      4064.80       1.1869886    0.0075629392
      4068.86       1.1222307    0.0075650850
      4072.93       1.0641464    0.0074974481
      4077.01       1.0097167    0.0074977985
      4081.08      0.96055000    0.0075655222
      4085.17      0.91657491    0.0075677197
      4089.25      0.87531780    0.0074990677
      4093.34      0.83893418    0.0074994429
      4097.43      0.80717740    0.0075007881
      4101.53      0.77686538    0.0075007749
      4105.63      0.74864986    0.0075002732
      4109.74      0.72423495    0.0075006948
      4113.85      0.70424532    0.0075016984
      4117.96      0.68700844    0.0075015677
      4122.08      0.67298469    0.0075009134
      4126.20      0.66336350    0.0075010363
      4130.33      0.65680852    0.0074321833
      4134.46      0.65257579    0.0074335685
      4138.59      0.64923316    0.0075011101
      4142.73      0.64725130    0.0075009796
      4146.88      0.64362690    0.0074316721
      4151.02      0.64061047    0.0074326997
      4155.18      0.63666278    0.0074342570
      4159.33      0.63190990    0.0075005049
      4163.49      0.62362114    0.0074307148
      4167.65      0.61370804    0.0074311916
      4171.82      0.60371857    0.0074320218
      4175.99      0.59228888    0.0074334715
      4180.17      0.58142312    0.0074987193
      4184.35      0.57344370    0.0074288971
      4188.54      0.56634260    0.0074292502
      4192.72      0.56217207    0.0074300726
      4196.92      0.56254960    0.0074312862
      4201.11      0.56662819    0.0073636110
      4205.31      0.57294643    0.0074264492
      4209.52      0.58367799    0.0074263206
      4213.73      0.59637083    0.0074267578
      4217.94      0.61104842    0.0074275138
      4222.16      0.62585257    0.0073604762
      4226.38      0.64123546    0.0073596002
      4230.61      0.65502781    0.0073590544
      4234.84      0.66585133    0.0074220174
      4239.08      0.67409214    0.0074221741
      4243.32      0.67807222    0.0073567187
      4247.56      0.67970752    0.0073554213
      4251.81      0.67915803    0.0073543494
      4256.06      0.67494815    0.0073535270
      4260.32      0.66936904    0.0073529378
      4264.58      0.66527365    0.0072867571
      4268.84      0.65992099    0.0073509827
      4273.11      0.65302683    0.0073493378
      4277.38      0.64700487    0.0073478520
      4281.66      0.64292565    0.0073465794
      4285.94      0.64259910    0.0073455119
      4290.23      0.64518704    0.0072789622
      4294.52      0.64816447    0.0072781522
      4298.81      0.65281163    0.0072775609
      4303.11      0.65917579    0.0072770673
      4307.42      0.66602822    0.0072766651
      4311.72      0.67272709    0.0073372687
      4316.04      0.67922694    0.0073356798
      4320.35      0.68436716    0.0072686666
      4324.67      0.68810823    0.0072674568
      4329.00      0.69097736    0.0072661318
      4333.33      0.69358831    0.0072650310
      4337.66      0.69500916    0.0072639717
      4342.00      0.69637841    0.0072629402
      4346.34      0.69797271    0.0072619167
      4350.69      0.69778948    0.0072609352
      4355.04      0.69617013    0.0071955832
      4359.39      0.69350503    0.0071936324
      4363.75      0.69070141    0.0071918633
      4368.12      0.68697481    0.0071899594
      4372.48      0.68171630    0.0071882019
      4376.86      0.67455757    0.0072463734
      4381.23      0.66531711    0.0072445870
      4385.61      0.65419455    0.0072429495
      4390.00      0.64135920    0.0072412648
      4394.39      0.62759391    0.0071792205
      4398.79      0.61277885    0.0071767337
      4403.18      0.59799934    0.0071743877
      4407.59      0.58388082    0.0071720204
      4412.00      0.57211928    0.0071696228
      4416.41      0.56229129    0.0071672158
      4420.82      0.55445073    0.0071647974
      4425.25      0.54956774    0.0071625044
      4429.67      0.54826798    0.0071600402
      4434.10      0.54977658    0.0071577058
      4438.54      0.55431354    0.0071552928
      4442.97      0.56250604    0.0071528248
      4447.42      0.57503448    0.0071503336
      4451.86      0.59186552    0.0071478175
      4456.32      0.61390428    0.0071452408
      4460.77      0.63993627    0.0070811833
      4465.24      0.66945247    0.0070786313
      4469.70      0.70286974    0.0070759123
      4474.17      0.74220601    0.0070732747
      4478.65      0.78583076    0.0070707226
      4483.12      0.83313948    0.0070680003
      4487.61      0.88288117    0.0070651087
      4492.09      0.93481580    0.0070622571
      4496.59      0.98703502    0.0070595252
      4501.08       1.0372326    0.0070566185
      4505.58       1.0837315    0.0070537933
      4510.09       1.1251642    0.0069941001
      4514.60       1.1621071    0.0069911855
      4519.12       1.1938279    0.0069881068
      4523.63       1.2223380    0.0069850955
      4528.16       1.2491711    0.0069821427
      4532.69       1.2743167    0.0069790429
      4537.22       1.2981289    0.0069759130
      4541.76       1.3211288    0.0069727594
      4546.30       1.3436540    0.0069696972
      4550.85       1.3664207    0.0069664976
      4555.40       1.3900198    0.0069634103
      4559.95       1.4170250    0.0069602071
      4564.51       1.4458281    0.0069571152
      4569.08       1.4766027    0.0069540258
      4573.65       1.5125021    0.0068932283
      4578.22       1.5490668    0.0068895619
      4582.80       1.5844860    0.0068858654
      4587.38       1.6177285    0.0068821725
      4591.97       1.6487945    0.0068784959
      4596.56       1.6760713    0.0068749324
      4601.16       1.7008905    0.0069285457
      4605.76       1.7205259    0.0069249409
      4610.37       1.7346015    0.0069212598
      4614.98       1.7411273    0.0069177240
      4619.59       1.7383389    0.0068591035
      4624.21       1.7242942    0.0068548265
      4628.84       1.6991249    0.0068504709
      4633.47       1.6648257    0.0068462478
      4638.10       1.6214858    0.0068420641
      4642.74       1.5720207    0.0068379460
      4647.38       1.5192553    0.0068339958
      4652.03       1.4617101    0.0067766327
      4656.68       1.4074237    0.0067726921
      4661.34       1.3562372    0.0067688657
      4666.00       1.3084695    0.0067652197
      4670.67       1.2639451    0.0068151505
      4675.33       1.2300653    0.0068105414
      4680.01       1.2047593    0.0068059440
      4684.69       1.1876781    0.0067483847
      4689.38       1.1767342    0.0067441863
      4694.07       1.1708702    0.0067401347
      4698.76       1.1671597    0.0067363236
      4703.46       1.1657878    0.0067325253
      4708.16       1.1644379    0.0067289007
      4712.87       1.1646550    0.0067232519
      4717.58       1.1609781    0.0067187529
      4722.30       1.1560149    0.0067143125
      4727.03       1.1484566    0.0067100438
      4731.75       1.1391747    0.0067060158
      4736.48       1.1271156    0.0066481819
      4741.22       1.1134210    0.0066432431
      4745.96       1.0974188    0.0066383961
      4750.71       1.0785793    0.0066873033
      4755.46       1.0574177    0.0066830282
      4760.22       1.0319071    0.0066260881
      4764.97       1.0029075    0.0066206694
      4769.74      0.97219177    0.0066156374
      4774.51      0.94054646    0.0066108482
      4779.29      0.90562911    0.0066086999
      4784.07      0.87445436    0.0066027796
      4788.85      0.84600553    0.0065971261
      4793.64      0.82241602    0.0065919121
      4798.43      0.80474502    0.0065869299
      4803.23      0.79700739    0.0065323103
      4808.03      0.79798698    0.0065782414
      4812.84      0.81183236    0.0065725950
      4817.66      0.83676668    0.0065672326
      4822.48      0.87569322    0.0065124193
      4827.30      0.91730842    0.0065078821
      4832.12      0.96729092    0.0065528180
      4836.96       1.0163165    0.0064974345
      4841.79       1.0550097    0.0064922538
      4846.63       1.0836203    0.0064874880
      4851.48       1.0994773    0.0064833099
      4856.33       1.1021965    0.0064768917
      4861.19       1.0938267    0.0064715763
      4866.05       1.0741488    0.0064667191
      4870.92       1.0412014    0.0064118127
      4875.79       1.0037566    0.0064558755
      4880.66      0.96524528    0.0064505493
      4885.55      0.92759423    0.0064456777
      4890.43      0.89319654    0.0063904568
      4895.32      0.86785569    0.0063846793
      4900.22      0.84930286    0.0064290786
      4905.12      0.84769868    0.0063747540
      4910.02      0.85718710    0.0063685313
      4914.94      0.87722080    0.0063628883
      4919.85      0.91211612    0.0063589079
