# starting wavelength =        3197.8700
# ending wavelength =        9147.9800
# O2 telluric scale =        0
# O2 telluric shift =        0
# H2O telluric scale =        0
# H2O telluric shift =        0
      3201.03      0.46827332     0.032244454
      3204.23      0.47337574     0.025792222
      3207.44      0.47157428     0.023779833
      3210.64      0.46307085     0.019688400
      3213.85      0.45490029     0.018487332
      3217.07      0.45234936     0.015973821
      3220.28      0.45373768     0.015248940
      3223.51      0.46165106     0.014162309
      3226.73      0.47020712     0.012975372
      3229.96      0.48117451     0.012602660
      3233.19      0.49134095     0.011885195
      3236.42      0.49987773     0.011623053
      3239.66      0.50941813     0.011179043
      3242.90      0.52217852     0.010977938
      3246.14      0.53727568     0.010692784
      3249.39      0.55136993     0.010527984
      3252.64      0.56158715     0.010338005
      3255.89      0.56808689     0.010195530
      3259.14      0.57639974    0.0099410577
      3262.40      0.58611236    0.0099223953
      3265.67      0.59947511     0.010015807
      3268.93      0.60782549    0.0099978897
      3272.20      0.61287607    0.0099805000
      3275.47      0.61484582    0.0099640275
      3278.75      0.61329502    0.0099480973
      3282.03      0.61282839     0.010038175
      3285.31      0.61289507     0.010018768
      3288.60      0.61125979    0.0098802581
      3291.88      0.60946142    0.0098626436
      3295.18      0.60669569    0.0098456447
      3298.47      0.60442763    0.0099407868
      3301.77      0.60576719    0.0099205224
      3305.07      0.60697873    0.0099009362
      3308.38      0.60645274    0.0098819814
      3311.69      0.60366677    0.0098636876
      3315.00      0.59275541    0.0099631389
      3318.31      0.58324910    0.0098236824
      3321.63      0.57573947    0.0098030031
      3324.95      0.56893384    0.0097830151
      3328.28      0.56635206    0.0097641256
      3331.61      0.57197461    0.0098616136
      3334.94      0.57699869    0.0098438933
      3338.27      0.58160270    0.0098269717
      3341.61      0.58970752    0.0098110567
      3344.95      0.60111116    0.0097961930
      3348.30      0.61193201    0.0097609321
      3351.65      0.61557269    0.0097425520
      3355.00      0.62172939    0.0097250552
      3358.35      0.63106699    0.0097086414
      3361.71      0.64447573    0.0098048584
      3365.07      0.65184486    0.0097844870
      3368.44      0.65932316    0.0097651070
      3371.81      0.67065612    0.0096245217
      3375.18      0.68086387    0.0096074948
      3378.56      0.69056874    0.0097055274
      3381.94      0.69304611    0.0096844983
      3385.32      0.69305931    0.0096647419
      3388.70      0.69298016    0.0096459434
      3392.09      0.69466420    0.0097487970
      3395.48      0.69862956    0.0097320243
      3398.88      0.70122924    0.0095848011
      3402.28      0.70565207    0.0095644460
      3405.68      0.70799329    0.0096650296
      3409.09      0.71194389    0.0096467697
      3412.49      0.71857076    0.0096296965
      3415.91      0.72601185    0.0096140639
      3419.32      0.72788374    0.0097111083
      3422.74      0.72806645    0.0095636659
      3426.17      0.73330469    0.0095454225
      3429.59      0.74124981    0.0095283726
      3433.02      0.75085300    0.0096302829
      3436.45      0.75767962    0.0096086626
      3439.89      0.76171282    0.0095884826
      3443.33      0.76680584    0.0094444478
      3446.78      0.78067223    0.0095507437
      3450.22      0.79449677    0.0095274404
      3453.67      0.80497171    0.0095062864
      3457.13      0.81135627    0.0094867022
      3460.58      0.81787970    0.0095942481
      3464.04      0.82703541    0.0095773513
      3467.51      0.83813518    0.0094252306
      3470.98      0.84879857    0.0094045229
      3474.45      0.86103659    0.0095099007
      3477.92      0.86812263    0.0094919316
      3481.40      0.87412305    0.0094756129
      3484.88      0.87889931    0.0094614291
      3488.37      0.88197693    0.0094265559
      3491.86      0.88458266    0.0094075310
      3495.35      0.88627968    0.0093904693
      3498.84      0.88790609    0.0094968715
      3502.34      0.89051545    0.0094746847
      3505.84      0.89308278    0.0094543792
      3509.35      0.89661090    0.0093062301
      3512.86      0.89991152    0.0094144510
      3516.37      0.90496913    0.0093914486
      3519.89      0.90958509    0.0093703763
      3523.41      0.91145133    0.0093516356
      3526.93      0.91520529    0.0094664581
      3530.46      0.91955647    0.0093083147
      3533.99      0.92059933    0.0092869408
      3537.53      0.91594779    0.0093983355
      3541.06      0.91472989    0.0093810896
      3544.60      0.91828223    0.0093660037
      3548.15      0.92791563    0.0093338056
      3551.70      0.93050549    0.0093136882
      3555.25      0.93046566    0.0092961280
      3558.80      0.92930942    0.0092808079
      3562.36      0.92639759    0.0093859551
      3565.92      0.92842862    0.0092292955
      3569.49      0.92995436    0.0092116072
      3573.06      0.92610093    0.0093240448
      3576.64      0.92769414    0.0093005142
      3580.21      0.93210992    0.0092796476
      3583.79      0.93533782    0.0094011195
      3587.38      0.93455140    0.0092387900
      3590.96      0.93520742    0.0092153760
      3594.55      0.93974821    0.0093329438
      3598.15      0.94794158    0.0093152117
      3601.75      0.95843181    0.0093004127
      3605.35      0.97481951    0.0091303356
      3608.96      0.98920061    0.0092470582
      3612.56       1.0036098    0.0092299167
      3616.18       1.0182460    0.0092157950
      3619.79       1.0311216    0.0093243556
      3623.41       1.0412700    0.0091616482
      3627.04       1.0533168    0.0091453142
      3630.66       1.0690078    0.0092599503
      3634.29       1.0865114    0.0092369988
      3637.93       1.1060343    0.0090772211
      3641.57       1.1230446    0.0091976055
      3645.21       1.1333645    0.0091723070
      3648.86       1.1409083    0.0091505674
      3652.50       1.1496216    0.0092800059
      3656.16       1.1562589    0.0091088280
      3659.81       1.1615159    0.0090849827
      3663.47       1.1624736    0.0092109177
      3667.14       1.1619070    0.0091944299
      3670.80       1.1557936    0.0093168908
      3674.48       1.1457923    0.0091433954
      3678.15       1.1360669    0.0091249673
      3681.83       1.1265602    0.0092523229
      3685.51       1.1129352    0.0092265711
      3689.20       1.0942771    0.0090568920
      3692.88       1.0768749    0.0091882914
      3696.58       1.0593355    0.0091606467
      3700.27       1.0409121    0.0091376008
      3703.98       1.0174752    0.0092778466
      3707.68       1.0022356    0.0090952128
      3711.39      0.98948709    0.0090706236
      3715.10      0.98095360    0.0092076912
      3718.81      0.97052591    0.0091925997
      3722.53      0.95951376    0.0091601795
      3726.26      0.94925333    0.0091385221
      3729.98      0.94032573    0.0091220558
      3733.71      0.93640270    0.0092531665
      3737.45      0.93182288    0.0090703338
      3741.18      0.92688844    0.0090525311
      3744.93      0.92155172    0.0091860232
      3748.67      0.91585676    0.0091599085
      3752.42      0.91230038    0.0091521280
      3756.17      0.90992076    0.0091185819
      3759.93      0.90731133    0.0090913067
      3763.69      0.90212877    0.0092406358
      3767.45      0.90243263    0.0090512739
      3771.22      0.90702025    0.0090232279
      3774.99      0.91418144    0.0091702825
      3778.77      0.92176704    0.0091549310
      3782.54      0.93344630    0.0091239332
      3786.33      0.94698318    0.0091008065
      3790.11      0.96040128    0.0090844890
      3793.90      0.97483955    0.0092237424
      3797.70      0.98925664    0.0090313192
      3801.50       1.0048302    0.0090148679
      3805.30       1.0234270    0.0091533136
      3809.10       1.0380339    0.0089617668
      3812.91       1.0524965    0.0089453923
      3816.73       1.0668280    0.0090829718
      3820.54       1.0871618    0.0088925600
      3824.36       1.1078311    0.0088766784
      3828.19       1.1283334    0.0090126020
      3832.02       1.1452829    0.0088240291
      3835.85       1.1667858    0.0088086800
      3839.68       1.1995257    0.0087786169
      3843.52       1.2273910    0.0087556462
      3847.37       1.2556212    0.0087405982
      3851.22       1.2873485    0.0087094187
      3855.07       1.3073434    0.0086874374
      3858.92       1.3244226    0.0086734194
      3862.78       1.3354011    0.0086405866
      3866.64       1.3427040    0.0086200461
      3870.51       1.3457276    0.0086071133
      3874.38       1.3418310    0.0085719679
      3878.26       1.3402881    0.0085531486
      3882.13       1.3334397    0.0083722238
      3886.02       1.3269642    0.0085041724
      3889.90       1.3236394    0.0084871635
      3893.79       1.3191581    0.0083045968
      3897.69       1.3098206    0.0084368230
      3901.59       1.3057365    0.0084213735
      3905.49       1.3037638    0.0082370161
      3909.39       1.3069894    0.0083700429
      3913.30       1.3147346    0.0081961631
      3917.22       1.3207667    0.0081701896
      3921.13       1.3296058    0.0083045926
      3925.06       1.3353909    0.0081278462
      3928.98       1.3369081    0.0082564634
      3932.91       1.3365411    0.0082404547
      3936.84       1.3337618    0.0080606786
      3940.78       1.3312887    0.0081902109
      3944.72       1.3266001    0.0080205420
      3948.67       1.3223330    0.0079944196
      3952.61       1.3173974    0.0081255825
      3956.57       1.3118532    0.0079520582
      3960.52       1.3071102    0.0079293226
      3964.48       1.3006411    0.0079126292
      3968.45       1.2958579    0.0078849596
      3972.42       1.2903533    0.0080132319
      3976.39       1.2877063    0.0078440414
      3980.37       1.2839059    0.0078198585
      3984.35       1.2803174    0.0078056921
      3988.33       1.2813815    0.0077770291
      3992.32       1.2853039    0.0079019153
      3996.31       1.2877639    0.0077359904
      4000.31       1.2889332    0.0077115931
      4004.31       1.2910849    0.0076971547
      4008.31       1.2957070    0.0076683780
      4012.32       1.3010223    0.0075170656
      4016.33       1.3081153    0.0076278392
      4020.35       1.3174844    0.0076035591
      4024.37       1.3293850    0.0075890560
      4028.40       1.3385995    0.0075610563
      4032.42       1.3481654    0.0074119645
      4036.46       1.3558069    0.0075200613
      4040.50       1.3631113    0.0074971947
      4044.54       1.3725359    0.0074806194
      4048.58       1.3769207    0.0074536600
      4052.63       1.3792109    0.0073082464
      4056.68       1.3794929    0.0074121841
      4060.74       1.3766299    0.0072635638
      4064.80       1.3736254    0.0073719993
      4068.86       1.3630311    0.0072209828
      4072.93       1.3498878    0.0072058332
      4077.01       1.3324127    0.0073053349
      4081.08       1.3143458    0.0071615331
      4085.17       1.2982084    0.0072642944
      4089.25       1.2848070    0.0071179985
      4093.34       1.2753076    0.0072244516
      4097.43       1.2711834    0.0070758171
      4101.53       1.2694285    0.0070608728
      4105.63       1.2685341    0.0071578356
      4109.74       1.2720152    0.0070171615
      4113.85       1.2754176    0.0071166202
      4117.96       1.2823058    0.0069741742
      4122.08       1.2848778    0.0069633775
      4126.20       1.2883934    0.0069322004
      4130.33       1.2896420    0.0069191179
      4134.46       1.2900482    0.0068910768
      4138.59       1.2891283    0.0068758057
      4142.73       1.2859362    0.0068501125
      4146.88       1.2826971    0.0068330462
      4151.02       1.2782975    0.0066940743
      4155.18       1.2713296    0.0067906277
      4159.33       1.2671020    0.0067807446
      4163.49       1.2631103    0.0067494951
      4167.65       1.2605097    0.0067375871
      4171.82       1.2616257    0.0067086139
      4175.99       1.2616347    0.0066953115
      4180.17       1.2648690    0.0066679931
      4184.35       1.2634751    0.0066532085
      4188.54       1.2607596    0.0065153358
      4192.72       1.2586693    0.0066118184
      4196.92       1.2519457    0.0064761673
      4201.11       1.2428396    0.0065707368
      4205.31       1.2323191    0.0064371175
      4209.52       1.2211315    0.0065297696
      4213.73       1.2086158    0.0063984405
      4217.94       1.1953258    0.0064898178
      4222.16       1.1826576    0.0063600615
      4226.38       1.1688745    0.0064498799
      4230.61       1.1552256    0.0063216380
      4234.84       1.1408779    0.0064099477
      4239.08       1.1245195    0.0062832384
      4243.32       1.1082097    0.0062623259
      4247.56       1.0910941    0.0062448626
      4251.81       1.0760511    0.0062234645
      4256.06       1.0590803    0.0062068791
      4260.32       1.0442529    0.0061850210
      4264.58       1.0301458    0.0061686816
      4268.84       1.0198679    0.0061467417
      4273.11       1.0098155    0.0061308418
      4277.38       1.0025955    0.0061087263
      4281.66      0.99689657    0.0060929432
      4285.94      0.99344467    0.0060706538
      4290.23      0.99225029    0.0060549857
      4294.52      0.99224569    0.0060326626
      4298.81      0.99582027    0.0060169414
      4303.11       1.0017467    0.0059947294
      4307.42       1.0102698    0.0059790293
      4311.72       1.0189171    0.0059572904
      4316.04       1.0287376    0.0059412862
      4320.35       1.0385839    0.0059198871
      4324.67       1.0510308    0.0059035395
      4329.00       1.0635742    0.0058826125
      4333.33       1.0772122    0.0058658305
      4337.66       1.0891387    0.0058456333
      4342.00       1.1011852    0.0058282469
      4346.34       1.1150542    0.0057143489
      4350.69       1.1290783    0.0057908172
      4355.04       1.1391300    0.0056783762
      4359.39       1.1479785    0.0057535424
      4363.75       1.1533361    0.0056425569
      4368.12       1.1601099    0.0057164526
      4372.48       1.1670290    0.0056072057
      4376.86       1.1756692    0.0056796344
      4381.23       1.1883133    0.0055719476
      4385.61       1.1997334    0.0056430495
      4390.00       1.2113425    0.0055371641
      4394.39       1.2236102    0.0055152565
      4398.79       1.2379846    0.0055028031
      4403.18       1.2537302    0.0054800029
      4407.59       1.2732373    0.0054688319
      4412.00       1.2950666    0.0054451885
      4416.41       1.3162112    0.0054353925
      4420.82       1.3397842    0.0054105190
      4425.25       1.3635550    0.0054024499
      4429.67       1.3913294    0.0053763640
      4434.10       1.4181079    0.0053564935
      4438.54       1.4419228    0.0053427140
      4442.97       1.4656090    0.0053216432
      4447.42       1.4909756    0.0053096268
      4451.86       1.5186940    0.0052872879
      4456.32       1.5457156    0.0052771679
      4460.77       1.5765116    0.0052535110
      4465.24       1.6049701    0.0051530580
      4469.70       1.6288108    0.0052203810
      4474.17       1.6497140    0.0051188487
      4478.65       1.6697361    0.0051879423
      4483.12       1.6870930    0.0051668040
      4487.61       1.6996151    0.0051560108
      4492.09       1.7110772    0.0051334531
      4496.59       1.7177396    0.0050353611
      4501.08       1.7206450    0.0051008515
      4505.58       1.7181056    0.0050019555
      4510.09       1.7133537    0.0050691571
      4514.60       1.7032823    0.0049689355
      4519.12       1.6894748    0.0049534773
      4523.63       1.6757842    0.0050159583
      4528.16       1.6643981    0.0049196118
      4532.69       1.6522293    0.0049844313
      4537.22       1.6415982    0.0048869095
      4541.76       1.6318726    0.0048722134
      4546.30       1.6231035    0.0048550173
      4550.85       1.6141153    0.0048385309
      4555.40       1.6053728    0.0049013063
      4559.95       1.6004541    0.0048060864
      4564.51       1.5954812    0.0047919593
      4569.08       1.5873504    0.0047743313
      4573.65       1.5787351    0.0047585845
      4578.22       1.5679007    0.0046709301
      4582.80       1.5582997    0.0047260055
      4587.38       1.5425892    0.0047122910
      4591.97       1.5235642    0.0046948859
      4596.56       1.4994233    0.0046791938
      4601.16       1.4743991    0.0045934389
      4605.76       1.4501505    0.0046472860
      4610.37       1.4237386    0.0046333881
      4614.98       1.4014226    0.0045459355
      4619.59       1.3807108    0.0046007767
      4624.21       1.3637889    0.0045173957
      4628.84       1.3466352    0.0045699348
      4633.47       1.3346418    0.0045551924
      4638.10       1.3257896    0.0044705284
      4642.74       1.3201664    0.0045237117
      4647.38       1.3180703    0.0044430432
      4652.03       1.3163173    0.0044247527
      4656.68       1.3149644    0.0044784778
      4661.34       1.3125128    0.0043968626
      4666.00       1.3119949    0.0043796744
      4670.67       1.3069650    0.0043709702
      4675.33       1.2991985    0.0043514560
      4680.01       1.2890233    0.0044029839
      4684.69       1.2767407    0.0043253049
      4689.38       1.2617616    0.0043068351
      4694.07       1.2470256    0.0043585942
      4698.76       1.2320033    0.0042805908
      4703.46       1.2181094    0.0042630727
      4708.16       1.2085072    0.0042562736
      4712.87       1.1996380    0.0042366691
      4717.58       1.1939128    0.0042197816
      4722.30       1.1892748    0.0042123295
      4727.03       1.1857146    0.0041933393
      4731.75       1.1870378    0.0041769552
      4736.48       1.1883715    0.0041690544
      4741.22       1.1922289    0.0041505358
      4745.96       1.1972288    0.0041347781
      4750.71       1.2006579    0.0041266486
      4755.46       1.2059297    0.0041084850
      4760.22       1.2109351    0.0040930280
      4764.97       1.2166314    0.0040194209
      4769.74       1.2215893    0.0040670147
      4774.51       1.2246722    0.0039919998
      4779.29       1.2256347    0.0039788781
      4784.07       1.2253454    0.0040261288
      4788.85       1.2241520    0.0039518388
      4793.64       1.2224756    0.0039386982
      4798.43       1.2208100    0.0039859978
      4803.23       1.2176904    0.0039122450
      4808.03       1.2124835    0.0038990248
      4812.84       1.2037855    0.0039463616
      4817.66       1.1945008    0.0038731061
      4822.48       1.1881784    0.0038597409
      4827.30       1.1808866    0.0038483760
      4832.12       1.1748775    0.0038344765
      4836.96       1.1684412    0.0038209824
      4841.79       1.1629892    0.0038094040
      4846.63       1.1613659    0.0037965631
      4851.48       1.1648304    0.0037828096
      4856.33       1.1665884    0.0037709131
      4861.19       1.1656820    0.0037045832
      4866.05       1.1657132    0.0037452741
      4870.92       1.1663010    0.0037330074
      4875.79       1.1692561    0.0037221929
      4880.66       1.1724822    0.0037084448
      4885.55       1.1772633    0.0036957442
      4890.43       1.1835665    0.0036844965
      4895.32       1.1860566    0.0036191464
      4900.22       1.1871111    0.0036593175
      4905.12       1.1868291    0.0036475082
      4910.02       1.1882720    0.0035845368
      4914.94       1.1895686    0.0035709794
